Interval=	0.005 s
ExcelDateTime=	4.6085558275309835e+004	3/4/2026 13:23:54.98677
TimeFormat=	StartOfBlock
DateFormat=	
ChannelTitle=	RMS Biceps
Range=	0.18 mV
0.15	0.06707994
0.155	0.06707994
0.16	0.06707994
0.165	0.06707994
0.17	0.06707994
0.175	0.06707994
0.18	0.06707994
0.185	0.06707994
0.19	0.06707994
0.195	0.06707994
0.2	0.06707994
0.205	0.06660935
0.21	0.06616219
0.215	0.06580988
0.22	0.06533233
0.225	0.06518461
0.23	0.06514251
0.235	0.06522753
0.24	0.06527542
0.245	0.06539672
0.25	0.06552009
0.255	0.06569245
0.26	0.06587016
0.265	0.06608977
0.27	0.06645803
0.275	0.06685364
0.28	0.06728641
0.285	0.06771651
0.29	0.06794088
0.295	0.06824296
0.3	0.06871636
0.305	0.06908125
0.31	0.06928007
0.315	0.06950805
0.32	0.06976484
0.325	0.07003447
0.33	0.07041993
0.335	0.07082967
0.34	0.07123935
0.345	0.07163543
0.35	0.07198213
0.355	0.0722656
0.36	0.07255094
0.365	0.07285472
0.37	0.07317508
0.375	0.07355732
0.38	0.07382128
0.385	0.07407449
0.39	0.07425614
0.395	0.07445741
0.4	0.07464202
0.405	0.07480007
0.41	0.07495523
0.415	0.07508545
0.42	0.07522142
0.425	0.07544398
0.43	0.07553577
0.435	0.07549237
0.44	0.07534715
0.445	0.07518028
0.45	0.07493208
0.455	0.07468624
0.46	0.07446283
0.465	0.07423465
0.47	0.07402179
0.475	0.07366115
0.48	0.0732464
0.485	0.07280435
0.49	0.07237552
0.495	0.07203221
0.5	0.07166706
0.505	0.07130738
0.51	0.07101925
0.515	0.0708257
0.52	0.07058489
0.525	0.07034316
0.53	0.07008905
0.535	0.06966078
0.54	0.06918731
0.545	0.06871348
0.55	0.06825544
0.555	0.06788621
0.56	0.06753585
0.565	0.06721904
0.57	0.0668252
0.575	0.06636422
0.58	0.06576937
0.585	0.06522846
0.59	0.06469582
0.595	0.06416656
0.6	0.06360142
0.605	0.06306549
0.61	0.06254246
0.615	0.06201793
0.62	0.06150221
0.625	0.06098362
0.63	0.06036295
0.635	0.05983339
0.64	0.05939605
0.645	0.05900203
0.65	0.05862848
0.655	0.05828112
0.66	0.05793034
0.665	0.05753141
0.67	0.0571075
0.675	0.0566577
0.68	0.05630379
0.685	0.05601921
0.69	0.05571033
0.695	0.05542
0.7	0.05512479
0.705	0.05484259
0.71	0.0545357
0.715	0.05418072
0.72	0.05383602
0.725	0.0535226
0.73	0.05322833
0.735	0.05291772
0.74	0.05272498
0.745	0.05257798
0.75	0.05242728
0.755	0.0522572
0.76	0.05193872
0.765	0.05165516
0.77	0.05131931
0.775	0.05102324
0.78	0.05083898
0.785	0.05073289
0.79	0.05069698
0.795	0.05065759
0.8	0.05064951
0.805	0.05064533
0.81	0.05058457
0.815	0.05052112
0.82	0.05047016
0.825	0.05041077
0.83	0.05034952
0.835	0.05034925
0.84	0.05032085
0.845	0.05028943
0.85	0.05028449
0.855	0.05031635
0.86	0.05036816
0.865	0.0504272
0.87	0.05048966
0.875	0.05059881
0.88	0.0509883
0.885	0.05139831
0.89	0.05176397
0.895	0.05215764
0.9	0.05247831
0.905	0.05280421
0.91	0.05313555
0.915	0.05349205
0.92	0.05386635
0.925	0.05423446
0.93	0.05459727
0.935	0.05494538
0.94	0.05529263
0.945	0.05566931
0.95	0.05601778
0.955	0.05634343
0.96	0.05665786
0.965	0.05702081
0.97	0.05734126
0.975	0.05759463
0.98	0.05784841
0.985	0.05796391
0.99	0.05808437
0.995	0.05810624
1	0.05813238	#1 anya bl 1 
1.005	0.05815879
1.01	0.05820534
1.015	0.05829203
1.02	0.05842055
1.025	0.05853655
1.03	0.05868054
1.035	0.05879048
1.04	0.05894433
1.045	0.05913115
1.05	0.0593185
1.055	0.05952624
1.06	0.05970716
1.065	0.05989351
1.07	0.06006766
1.075	0.06031302
1.08	0.0605107
1.085	0.06030478
1.09	0.06006257
1.095	0.05978674
1.1	0.05952379
1.105	0.05924301
1.11	0.05897705
1.115	0.05869697
1.12	0.05839408
1.125	0.058092
1.13	0.05779229
1.135	0.05750213
1.14	0.05718287
1.145	0.05687606
1.15	0.05662032
1.155	0.05640022
1.16	0.05621601
1.165	0.05607207
1.17	0.05594076
1.175	0.05582771
1.18	0.05578169
1.185	0.05576208
1.19	0.05584718
1.195	0.05595352
1.2	0.05609674
1.205	0.05624844
1.21	0.05641938
1.215	0.05658255
1.22	0.05682407
1.225	0.0569862
1.23	0.05723062
1.235	0.05744859
1.24	0.0576935
1.245	0.05790563
1.25	0.05806376
1.255	0.05824608
1.26	0.05838985
1.265	0.05855672
1.27	0.05871414
1.275	0.05890564
1.28	0.05897424
1.285	0.05913343
1.29	0.05952664
1.295	0.05997708
1.3	0.0604889
1.305	0.0609724
1.31	0.06151833
1.315	0.06203735
1.32	0.06263528
1.325	0.06323113
1.33	0.06386324
1.335	0.06449113
1.34	0.06509374
1.345	0.0657164
1.35	0.06632538
1.355	0.06677331
1.36	0.06716593
1.365	0.06752605
1.37	0.06783491
1.375	0.06813845
1.38	0.06848505
1.385	0.06882537
1.39	0.06913614
1.395	0.06940306
1.4	0.06964141
1.405	0.06988328
1.41	0.07011732
1.415	0.07032133
1.42	0.07050691
1.425	0.07051794
1.43	0.07057874
1.435	0.07050026
1.44	0.07040516
1.445	0.07030861
1.45	0.07018406
1.455	0.07009924
1.46	0.07000601
1.465	0.06998804
1.47	0.06997384
1.475	0.07006202
1.48	0.07016976
1.485	0.07034812
1.49	0.07041451
1.495	0.07035198
1.5	0.07021324
1.505	0.07003003
1.51	0.06986528
1.515	0.06965468
1.52	0.06946531
1.525	0.06914558
1.53	0.06882805
1.535	0.06842873
1.54	0.0680294
1.545	0.06764568
1.55	0.0672563
1.555	0.06686988
1.56	0.06655527
1.565	0.06627625
1.57	0.06600606
1.575	0.06575866
1.58	0.06549273
1.585	0.06514158
1.59	0.06492856
1.595	0.06472718
1.6	0.06460326
1.605	0.06448198
1.61	0.06438996
1.615	0.06429022
1.62	0.06420327
1.625	0.06418251
1.63	0.06426792
1.635	0.06435852
1.64	0.06452754
1.645	0.06471507
1.65	0.0649027
1.655	0.06509043
1.66	0.06526183
1.665	0.06539466
1.67	0.06543713
1.675	0.06538022
1.68	0.06512924
1.685	0.0647501
1.69	0.06432929
1.695	0.06399483
1.7	0.06375813
1.705	0.06356554
1.71	0.06339365
1.715	0.06319811
1.72	0.06302426
1.725	0.06281256
1.73	0.06264316
1.735	0.06247062
1.74	0.06234903
1.745	0.06220725
1.75	0.06204683
1.755	0.06187746
1.76	0.06173429
1.765	0.06163011
1.77	0.0615141
1.775	0.06141543
1.78	0.06131944
1.785	0.06123646
1.79	0.06123573
1.795	0.06094806
1.8	0.06069747
1.805	0.06032538
1.81	0.06000271
1.815	0.05966315
1.82	0.05933989
1.825	0.05910046
1.83	0.05875083
1.835	0.05841546
1.84	0.05800059
1.845	0.05758
1.85	0.05720659
1.855	0.05683751
1.86	0.05649282
1.865	0.05612565
1.87	0.05577858
1.875	0.05541872
1.88	0.05515217
1.885	0.05496136
1.89	0.05490423
1.895	0.05486682
1.9	0.05476597
1.905	0.05465376
1.91	0.05453845
1.915	0.05449084
1.92	0.05445626
1.925	0.05445022
1.93	0.05446881
1.935	0.05451482
1.94	0.05463325
1.945	0.05480561
1.95	0.0550174
1.955	0.05523825
1.96	0.05547288
1.965	0.05565341
1.97	0.05577512
1.975	0.05593347
1.98	0.05615756
1.985	0.05640733
1.99	0.05676637
1.995	0.05705962
2	0.05750522
2.005	0.05793797
2.01	0.05842993
2.015	0.05883224
2.02	0.05919411
2.025	0.05956611
2.03	0.0597688
2.035	0.06003204
2.04	0.06026037
2.045	0.06064851
2.05	0.06108539
2.055	0.0614651
2.06	0.06185198
2.065	0.06223184
2.07	0.06263029
2.075	0.06311635
2.08	0.06365
2.085	0.06417541
2.09	0.06475866
2.095	0.06528806
2.1	0.06583628
2.105	0.06645051
2.11	0.0670592
2.115	0.06766063
2.12	0.0681359
2.125	0.06860889
2.13	0.06903287
2.135	0.06945387
2.14	0.06989542
2.145	0.07022901
2.15	0.07046124
2.155	0.07065411
2.16	0.07087407
2.165	0.07116504
2.17	0.07149958
2.175	0.0719047
2.18	0.07233195
2.185	0.07261989
2.19	0.07286959
2.195	0.0729543
2.2	0.07305897
2.205	0.07318251
2.21	0.07324048
2.215	0.07331669
2.22	0.07344649
2.225	0.07365413
2.23	0.07382016
2.235	0.07412389
2.24	0.07441646
2.245	0.07472208
2.25	0.07484337
2.255	0.07488841
2.26	0.07492272
2.265	0.0749537
2.27	0.07497068
2.275	0.0749921
2.28	0.07487934
2.285	0.07475849
2.29	0.07462804
2.295	0.07450442
2.3	0.07438003
2.305	0.07424773
2.31	0.07404216
2.315	0.07384919
2.32	0.07368274
2.325	0.07357732
2.33	0.07347194
2.335	0.07339952
2.34	0.07332577
2.345	0.07326074
2.35	0.07327156
2.355	0.0733296
2.36	0.07340528
2.365	0.07342829
2.37	0.07330507
2.375	0.073121
2.38	0.07283535
2.385	0.07241476
2.39	0.07207234
2.395	0.07174949
2.4	0.07150877
2.405	0.07125235
2.41	0.07095423
2.415	0.07074973
2.42	0.07051063
2.425	0.07025499
2.43	0.0698641
2.435	0.06954605
2.44	0.06907829
2.445	0.06866513
2.45	0.0682747
2.455	0.06798687
2.46	0.06774022
2.465	0.06750174
2.47	0.06722153
2.475	0.06696988
2.48	0.06671056
2.485	0.06651512
2.49	0.06628686
2.495	0.06607371
2.5	0.06572627
2.505	0.06542461
2.51	0.06507975
2.515	0.06476091
2.52	0.06444739
2.525	0.06412587
2.53	0.06390012
2.535	0.06386168
2.54	0.06381542
2.545	0.06388205
2.55	0.06399355
2.555	0.0640428
2.56	0.06409874
2.565	0.06416889
2.57	0.06428063
2.575	0.06447818
2.58	0.06472463
2.585	0.06502564
2.59	0.06545094
2.595	0.06589797
2.6	0.0663282
2.605	0.06675503
2.61	0.06716683
2.615	0.06759712
2.62	0.06808719
2.625	0.0687796
2.63	0.0694757
2.635	0.07039536
2.64	0.07128469
2.645	0.0722328
2.65	0.07307805
2.655	0.07386625
2.66	0.07464059
2.665	0.07542026
2.67	0.07620875
2.675	0.07702344
2.68	0.0778055
2.685	0.07857903
2.69	0.07935541
2.695	0.08014778
2.7	0.08093461
2.705	0.08178558
2.71	0.08259455
2.715	0.08341444
2.72	0.08424724
2.725	0.08503528
2.73	0.08581152
2.735	0.08644752
2.74	0.0869146
2.745	0.0873631
2.75	0.08765379
2.755	0.08783489
2.76	0.08803771
2.765	0.08829567
2.77	0.08853355
2.775	0.08878455
2.78	0.08904558
2.785	0.08929646
2.79	0.08956311
2.795	0.08978129
2.8	0.08997274
2.805	0.09017327
2.81	0.0903938
2.815	0.09063604
2.82	0.0908638
2.825	0.09086644
2.83	0.090646
2.835	0.09044243
2.84	0.09008084
2.845	0.08963038
2.85	0.08923197
2.855	0.08885281
2.86	0.08850736
2.865	0.08831082
2.87	0.08808843
2.875	0.08789249
2.88	0.08771763
2.885	0.08757169
2.89	0.08742852
2.895	0.0873188
2.9	0.08721617
2.905	0.08752576
2.91	0.08807728
2.915	0.08890943
2.92	0.09021879
2.925	0.0914921
2.93	0.09278757
2.935	0.09426515
2.94	0.09578461
2.945	0.09721736
2.95	0.09865157
2.955	0.1002761
2.96	0.1019512
2.965	0.1041397
2.97	0.1062346
2.975	0.1083479
2.98	0.1106488
2.985	0.1129638
2.99	0.1154937
2.995	0.1181977
3	0.1208608
3.005	0.1235903
3.01	0.1263325
3.015	0.1289883
3.02	0.1316312
3.025	0.1342333
3.03	0.13694
3.035	0.1396179
3.04	0.1422013
3.045	0.1447266
3.05	0.147415
3.055	0.1499936
3.06	0.152538
3.065	0.1550742
3.07	0.157422
3.075	0.1597519
3.08	0.1621809
3.085	0.1645483
3.09	0.166906
3.095	0.1706051
3.1	0.1745905
3.105	0.1791588
3.11	0.1832075
3.115	0.1869928
3.12	0.1904596
3.125	0.1934554
3.13	0.1967171
3.135	0.1999076
3.14	0.2030697
3.145	0.2062243
3.15	0.2094958
3.155	0.2134237
3.16	0.2172002
3.165	0.221233
3.17	0.2247226
3.175	0.2282536
3.18	0.2317052
3.185	0.2349863
3.19	0.2382639
3.195	0.2412457
3.2	0.2440591
3.205	0.2469539
3.21	0.2497788
3.215	0.2524983
3.22	0.2557836
3.225	0.2589857
3.23	0.2625387
3.235	0.2660181
3.24	0.2694595
3.245	0.2728642
3.25	0.2762379
3.255	0.2793968
3.26	0.2825363
3.265	0.2857937
3.27	0.2890089
3.275	0.2923052
3.28	0.2955594
3.285	0.2986024
3.29	0.3017177
3.295	0.3047846
3.3	0.3063986
3.305	0.3075762
3.31	0.3079661
3.315	0.3084777
3.32	0.3090013
3.325	0.3096929
3.33	0.3104842
3.335	0.3109487
3.34	0.3114224
3.345	0.3116671
3.35	0.311853
3.355	0.3118932
3.36	0.3109581
3.365	0.3100034
3.37	0.3085486
3.375	0.3072295
3.38	0.3059069
3.385	0.3045633
3.39	0.3031601
3.395	0.3016009
3.4	0.3001967
3.405	0.2987279
3.41	0.297104
3.415	0.2953752
3.42	0.2936676
3.425	0.2909462
3.43	0.2882122
3.435	0.2847295
3.44	0.2812323
3.445	0.2777622
3.45	0.2743134
3.455	0.2708207
3.46	0.2674006
3.465	0.2640298
3.47	0.2603617
3.475	0.2568678
3.48	0.2531622
3.485	0.2494238
3.49	0.2458467
3.495	0.2419818
3.5	0.2381399
3.505	0.2349665
3.51	0.232056
3.515	0.2297588
3.52	0.2274577
3.525	0.2252904
3.53	0.222857
3.535	0.2206119
3.54	0.218477
3.545	0.2163647
3.55	0.2144605
3.555	0.2126963
3.56	0.2109793
3.565	0.2102059
3.57	0.2097125
3.575	0.2110043
3.58	0.2126549
3.585	0.2139657
3.59	0.2153737
3.595	0.2168586
3.6	0.2184629
3.605	0.2198996
3.61	0.2214046
3.615	0.2229147
3.62	0.2245399
3.625	0.2261753
3.63	0.2283906
3.635	0.2307827
3.64	0.2336066
3.645	0.2365732
3.65	0.2393555
3.655	0.242024
3.66	0.2446711
3.665	0.247396
3.67	0.249892
3.675	0.2523822
3.68	0.2543721
3.685	0.2563832
3.69	0.2583678
3.695	0.2601766
3.7	0.2622093
3.705	0.2640643
3.71	0.2660619
3.715	0.2679764
3.72	0.2696966
3.725	0.2713746
3.73	0.2728271
3.735	0.2743207
3.74	0.2755597
3.745	0.2768269
3.75	0.2780136
3.755	0.2792726
3.76	0.280359
3.765	0.2816255
3.77	0.2825959
3.775	0.2831933
3.78	0.2818193
3.785	0.2800023
3.79	0.2783492
3.795	0.2766858
3.8	0.2749693
3.805	0.2732415
3.81	0.2715537
3.815	0.269899
3.82	0.2682799
3.825	0.2666087
3.83	0.2648899
3.835	0.2631927
3.84	0.2611458
3.845	0.2591783
3.85	0.2567198
3.855	0.2543132
3.86	0.2518762
3.865	0.2494404
3.87	0.2466896
3.875	0.2440089
3.88	0.2413752
3.885	0.2389504
3.89	0.2367493
3.895	0.2346869
3.9	0.2326607
3.905	0.230305
3.91	0.2280233
3.915	0.2257404
3.92	0.2235222
3.925	0.221372
3.93	0.2194
3.935	0.2176358
3.94	0.2159077
3.945	0.2141935
3.95	0.2124457
3.955	0.2107299
3.96	0.208755
3.965	0.206898
3.97	0.2047808
3.975	0.2028717
3.98	0.2015304
3.985	0.2013494
3.99	0.201415
3.995	0.2014876
4	0.2013592
4.005	0.2012781
4.01	0.2012156
4.015	0.2012107
4.02	0.2011275
4.025	0.2010469
4.03	0.200995
4.035	0.2011278
4.04	0.2012982
4.045	0.2017703
4.05	0.2019549
4.055	0.2025251
4.06	0.203078
4.065	0.20362
4.07	0.2040973
4.075	0.2047413
4.08	0.2054436
4.085	0.2061675
4.09	0.2069105
4.095	0.2071885
4.1	0.2071912
4.105	0.2073713
4.11	0.2077578
4.115	0.2083069
4.12	0.2087842
4.125	0.2092684
4.13	0.2098
4.135	0.2100049
4.14	0.2100334
4.145	0.2100582
4.15	0.2104288
4.155	0.2109147
4.16	0.211519
4.165	0.2123227
4.17	0.2130514
4.175	0.2135964
4.18	0.2139455
4.185	0.213979
4.19	0.214076
4.195	0.2141458
4.2	0.2141785
4.205	0.2143023
4.21	0.2145098
4.215	0.2146868
4.22	0.2149059
4.225	0.215167
4.23	0.2154207
4.235	0.2156738
4.24	0.2156618
4.245	0.2155678
4.25	0.2153136
4.255	0.2151944
4.26	0.215007
4.265	0.2148734
4.27	0.2147872
4.275	0.2147497
4.28	0.2147352
4.285	0.2146091
4.29	0.2145639
4.295	0.2144069
4.3	0.2144405
4.305	0.2144035
4.31	0.2140744
4.315	0.2137483
4.32	0.2130761
4.325	0.2122802
4.33	0.2114143
4.335	0.210467
4.34	0.2096384
4.345	0.2089267
4.35	0.2083903
4.355	0.2073919
4.36	0.2063713
4.365	0.2051028
4.37	0.2036793
4.375	0.2024024
4.38	0.2013309
4.385	0.2003893
4.39	0.1991835
4.395	0.1981766
4.4	0.1972468
4.405	0.1963529
4.41	0.1955418
4.415	0.1945429
4.42	0.1935194
4.425	0.1922658
4.43	0.1910461
4.435	0.1898232
4.44	0.188588
4.445	0.1874918
4.45	0.1864607
4.455	0.1855254
4.46	0.1845874
4.465	0.1837068
4.47	0.1827139
4.475	0.1816899
4.48	0.1806225
4.485	0.1795427
4.49	0.1789539
4.495	0.1780837
4.5	0.1778093
4.505	0.1775735
4.51	0.1775145
4.515	0.1775678
4.52	0.1775469
4.525	0.1777314
4.53	0.1780595
4.535	0.1783523
4.54	0.1786054
4.545	0.178843
4.55	0.1790119
4.555	0.1787794
4.56	0.1787689
4.565	0.1784847
4.57	0.1784004
4.575	0.1783946
4.58	0.1781652
4.585	0.1779417
4.59	0.1777899
4.595	0.1779037
4.6	0.1776927
4.605	0.1773034
4.61	0.1768985
4.615	0.1763044
4.62	0.1758198
4.625	0.1753664
4.63	0.1750348
4.635	0.1746032
4.64	0.1741904
4.645	0.1737964
4.65	0.1733331
4.655	0.1728691
4.66	0.1723925
4.665	0.1721672
4.67	0.1719142
4.675	0.1718971
4.68	0.1718915
4.685	0.171907
4.69	0.1719299
4.695	0.171076
4.7	0.1704144
4.705	0.1687935
4.71	0.1671742
4.715	0.1655769
4.72	0.1640451
4.725	0.1625816
4.73	0.1613284
4.735	0.1602465
4.74	0.1594327
4.745	0.1586994
4.75	0.1581675
4.755	0.1578955
4.76	0.1579471
4.765	0.1579888
4.77	0.1582368
4.775	0.1583422
4.78	0.158477
4.785	0.1586867
4.79	0.158924
4.795	0.159095
4.8	0.1593767
4.805	0.1598987
4.81	0.1606237
4.815	0.1615848
4.82	0.1626839
4.825	0.1637663
4.83	0.1648435
4.835	0.1662709
4.84	0.1677246
4.845	0.1691403
4.85	0.1705358
4.855	0.1719841
4.86	0.1733355
4.865	0.1746824
4.87	0.1755323
4.875	0.176374
4.88	0.176862
4.885	0.1773931
4.89	0.1779188
4.895	0.1784397
4.9	0.1793556
4.905	0.1801569
4.91	0.1814272
4.915	0.1826714
4.92	0.1841092
4.925	0.1854965
4.93	0.1867794
4.935	0.1876991
4.94	0.188312
4.945	0.1885814
4.95	0.1888863
4.955	0.1889031
4.96	0.1885447
4.965	0.1880236
4.97	0.1874824
4.975	0.1869547
4.98	0.1864878
4.985	0.1860046
4.99	0.1855508
4.995	0.1850355
5	0.1844469
5.005	0.1837749
5.01	0.1830162
5.015	0.1821277
5.02	0.1807931
5.025	0.1794105
5.03	0.1780247
5.035	0.1766198
5.04	0.1745666
5.045	0.1725064
5.05	0.1704153
5.055	0.1682662
5.06	0.1660698
5.065	0.1639221
5.07	0.1617465
5.075	0.1598495
5.08	0.1579353
5.085	0.1565002
5.09	0.1549646
5.095	0.1534169
5.1	0.1518046
5.105	0.1501835
5.11	0.1486123
5.115	0.1468281
5.12	0.1449383
5.125	0.1423875
5.13	0.139822
5.135	0.1372898
5.14	0.1349568
5.145	0.1327862
5.15	0.1308552
5.155	0.1288208
5.16	0.1269676
5.165	0.1253737
5.17	0.1238694
5.175	0.122425
5.18	0.1209782
5.185	0.1195318
5.19	0.118073
5.195	0.1165982
5.2	0.1151479
5.205	0.1137847
5.21	0.1124059
5.215	0.1110456
5.22	0.1097813
5.225	0.108885
5.23	0.1080007
5.235	0.1070974
5.24	0.1062147
5.245	0.1058485
5.25	0.1054693
5.255	0.1051039
5.26	0.1047816
5.265	0.1044794
5.27	0.10421
5.275	0.1040071
5.28	0.1036982
5.285	0.1035772
5.29	0.1025891
5.295	0.1016151
5.3	0.1008075
5.305	0.1000556
5.31	0.09930961
5.315	0.09860043
5.32	0.09807933
5.325	0.09767761
5.33	0.09775962
5.335	0.09783539
5.34	0.09793309
5.345	0.09803408
5.35	0.09815102
5.355	0.09815782
5.36	0.09815634
5.365	0.09816416
5.37	0.09816518
5.375	0.09817695
5.38	0.09815404
5.385	0.09805836
5.39	0.09794026
5.395	0.09773832
5.4	0.09754478
5.405	0.09741494
5.41	0.09727798
5.415	0.0972363
5.42	0.09723343
5.425	0.09723
5.43	0.0972384
5.435	0.09724865
5.44	0.09726442
5.445	0.0972374
5.45	0.09719311
5.455	0.09714058
5.46	0.09712608
5.465	0.09710711
5.47	0.09706396
5.475	0.09691151
5.48	0.09659646
5.485	0.09630471
5.49	0.09562273
5.495	0.0953189
5.5	0.09505024
5.505	0.09439577
5.51	0.09374542
5.515	0.09310725
5.52	0.09243999
5.525	0.09177106
5.53	0.09102391
5.535	0.09027728
5.54	0.0895095
5.545	0.08869652
5.55	0.08786409
5.555	0.08700862
5.56	0.08622209
5.565	0.08546746
5.57	0.08470666
5.575	0.08392814
5.58	0.08314632
5.585	0.0823626
5.59	0.08161118
5.595	0.08083366
5.6	0.08016665
5.605	0.079482
5.61	0.0786454
5.615	0.0778096
5.62	0.07685413
5.625	0.0758866
5.63	0.07491146
5.635	0.07391201
5.64	0.07293001
5.645	0.0719317
5.65	0.07097072
5.655	0.07001916
5.66	0.06906607
5.665	0.06800306
5.67	0.06692276
5.675	0.06585177
5.68	0.06479828
5.685	0.06388457
5.69	0.06297767
5.695	0.06236624
5.7	0.06183517
5.705	0.06128527
5.71	0.06099532
5.715	0.06068872
5.72	0.0603961
5.725	0.06010391
5.73	0.05982988
5.735	0.05969941
5.74	0.05963577
5.745	0.05959487
5.75	0.05956102
5.755	0.05954121
5.76	0.05959817
5.765	0.05964537
5.77	0.05968939
5.775	0.05971927
5.78	0.05980915
5.785	0.05989146
5.79	0.05998935
5.795	0.0600997
5.8	0.06024301
5.805	0.06027456
5.81	0.06031126
5.815	0.06061948
5.82	0.06092301
5.825	0.06147103
5.83	0.0619742
5.835	0.06245654
5.84	0.06298671
5.845	0.0635043
5.85	0.06409714
5.855	0.06465323
5.86	0.06520888
5.865	0.06577319
5.87	0.06641728
5.875	0.06705018
5.88	0.06767869
5.885	0.06830247
5.89	0.06890088
5.895	0.06951189
5.9	0.0700778
5.905	0.07064098
5.91	0.07120607
5.915	0.07179596
5.92	0.07238396
5.925	0.07287445
5.93	0.07337672
5.935	0.07384721
5.94	0.07420623
5.945	0.0744855
5.95	0.07474171
5.955	0.07501009
5.96	0.07527626
5.965	0.07544123
5.97	0.07561522
5.975	0.07579108
5.98	0.07597895
5.985	0.07611205
5.99	0.07625793
5.995	0.07639173
6	0.07651786
6.005	0.07662382
6.01	0.07679113
6.015	0.07693716
6.02	0.07681739
6.025	0.07669983
6.03	0.0762934
6.035	0.07587269
6.04	0.07546003
6.045	0.07493344
6.05	0.07436203
6.055	0.0736552
6.06	0.07293805
6.065	0.07220809
6.07	0.07149932
6.075	0.07072031
6.08	0.06993118
6.085	0.06917253
6.09	0.06844443
6.095	0.06774224
6.1	0.06704846
6.105	0.06639804
6.11	0.06575184
6.115	0.0650991
6.12	0.06449113
6.125	0.06389496
6.13	0.06342725
6.135	0.06294456
6.14	0.06254236
6.145	0.06220266
6.15	0.06189794
6.155	0.06160296
6.16	0.06135854
6.165	0.061108
6.17	0.06093736
6.175	0.0608679
6.18	0.06094299
6.185	0.06110458
6.19	0.06134301
6.195	0.0615363
6.2	0.06175635
6.205	0.0620121
6.21	0.06228717
6.215	0.06255349
6.22	0.06284995
6.225	0.06332827
6.23	0.06385946
6.235	0.06456247
6.24	0.06529129
6.245	0.06604012
6.25	0.06687795
6.255	0.06774
6.26	0.0686939
6.265	0.06965916
6.27	0.07078107
6.275	0.07179387
6.28	0.07282139
6.285	0.07385809
6.29	0.07480477
6.295	0.07572529
6.3	0.07655072
6.305	0.07730352
6.31	0.07801237
6.315	0.07873517
6.32	0.07945367
6.325	0.08009469
6.33	0.08069735
6.335	0.08118906
6.34	0.08168146
6.345	0.08206482
6.35	0.08245688
6.355	0.08281213
6.36	0.08320598
6.365	0.08351666
6.37	0.08382389
6.375	0.08409881
6.38	0.0842783
6.385	0.08425909
6.39	0.08411572
6.395	0.08392445
6.4	0.08375948
6.405	0.08358227
6.41	0.08337523
6.415	0.08319681
6.42	0.08299977
6.425	0.08277328
6.43	0.08250491
6.435	0.08214823
6.44	0.08181501
6.445	0.08147749
6.45	0.0810904
6.455	0.08062936
6.46	0.08020133
6.465	0.07973675
6.47	0.07925526
6.475	0.07850209
6.48	0.07778809
6.485	0.0770764
6.49	0.07633687
6.495	0.0756679
6.5	0.07500341
6.505	0.07437066
6.51	0.07381337
6.515	0.07327452
6.52	0.07265728
6.525	0.07203373
6.53	0.0714592
6.535	0.07092888
6.54	0.07045414
6.545	0.06997995
6.55	0.06956269
6.555	0.06914103
6.56	0.06876495
6.565	0.06831637
6.57	0.06794974
6.575	0.0676032
6.58	0.06734688
6.585	0.0670298
6.59	0.06685215
6.595	0.06672929
6.6	0.06657841
6.605	0.0664153
6.61	0.06623414
6.615	0.06604544
6.62	0.06577899
6.625	0.06551488
6.63	0.06530817
6.635	0.06512029
6.64	0.06502925
6.645	0.06487783
6.65	0.06478858
6.655	0.06481182
6.66	0.0648953
6.665	0.06489958
6.67	0.06494268
6.675	0.06500382
6.68	0.06516169
6.685	0.06532569
6.69	0.06553275
6.695	0.06573018
6.7	0.06580523
6.705	0.06589357
6.71	0.06599116
6.715	0.06602647
6.72	0.06605699
6.725	0.06614203
6.73	0.06637874
6.735	0.06656209
6.74	0.06671054
6.745	0.06692071
6.75	0.06712341
6.755	0.06732733
6.76	0.06751049
6.765	0.06772642
6.77	0.06795432
6.775	0.06814053
6.78	0.06830975
6.785	0.06836037
6.79	0.06848871
6.795	0.0685723
6.8	0.06867293
6.805	0.06880108
6.81	0.06892414
6.815	0.06906461
6.82	0.06923176
6.825	0.06944695
6.83	0.06968575
6.835	0.06985912
6.84	0.07003709
6.845	0.0701561
6.85	0.07042503
6.855	0.07057791
6.86	0.07060223
6.865	0.07063956
6.87	0.07070088
6.875	0.07068489
6.88	0.07062474
6.885	0.07062167
6.89	0.07066204
6.895	0.07059638
6.9	0.07055319
6.905	0.07057356
6.91	0.07055655
6.915	0.07054357
6.92	0.07055343
6.925	0.07071127
6.93	0.07086265
6.935	0.07077325
6.94	0.07072217
6.945	0.07065432
6.95	0.07050262
6.955	0.07036209
6.96	0.07025141
6.965	0.07013441
6.97	0.06993242
6.975	0.06979087
6.98	0.06969647
6.985	0.06974672
6.99	0.06983409
6.995	0.06994837
7	0.07008789
7.005	0.07025444
7.01	0.07046047
7.015	0.07067891
7.02	0.07089297
7.025	0.07108654
7.03	0.07128875
7.035	0.07146136
7.04	0.0717249
7.045	0.07202846
7.05	0.07243772
7.055	0.07264374
7.06	0.07298269
7.065	0.07333959
7.07	0.07366558
7.075	0.07399533
7.08	0.07436693
7.085	0.07477213
7.09	0.07515676
7.095	0.07546419
7.1	0.07587492
7.105	0.07625959
7.11	0.07664553
7.115	0.0770744
7.12	0.07750126
7.125	0.07796395
7.13	0.07816724
7.135	0.07835985
7.14	0.07860227
7.145	0.07882556
7.15	0.07907546
7.155	0.07932991
7.16	0.07957561
7.165	0.07976904
7.17	0.07999169
7.175	0.08023703
7.18	0.08041308
7.185	0.08050427
7.19	0.08033257
7.195	0.08016987
7.2	0.07996526
7.205	0.07976015
7.21	0.0795067
7.215	0.07922775
7.22	0.07895909
7.225	0.07871068
7.23	0.07848097
7.235	0.07820354
7.24	0.07794971
7.245	0.07759927
7.25	0.07717288
7.255	0.07656078
7.26	0.07596535
7.265	0.07521714
7.27	0.0744927
7.275	0.07380858
7.28	0.07311911
7.285	0.07247034
7.29	0.07180435
7.295	0.07112882
7.3	0.07047728
7.305	0.06971056
7.31	0.06894926
7.315	0.06817874
7.32	0.06737197
7.325	0.06657922
7.33	0.06567779
7.335	0.06490893
7.34	0.06414991
7.345	0.06342962
7.35	0.06270259
7.355	0.06203414
7.36	0.0613798
7.365	0.0607828
7.37	0.06022223
7.375	0.05965087
7.38	0.05911343
7.385	0.05859951
7.39	0.05814297
7.395	0.05787591
7.4	0.05760717
7.405	0.05742857
7.41	0.05726621
7.415	0.057151
7.42	0.0569968
7.425	0.05681591
7.43	0.0565834
7.435	0.05632427
7.44	0.05617222
7.445	0.05598954
7.45	0.05584854
7.455	0.05576332
7.46	0.05581568
7.465	0.0559619
7.47	0.05625158
7.475	0.05657221
7.48	0.05684739
7.485	0.05729239
7.49	0.05783798
7.495	0.05843979
7.5	0.05916238
7.505	0.05986679
7.51	0.06063936
7.515	0.06141658
7.52	0.06219148
7.525	0.06293955
7.53	0.0636376
7.535	0.0643727
7.54	0.06510371
7.545	0.06580997
7.55	0.06650581
7.555	0.06724003
7.56	0.06787762
7.565	0.06850116
7.57	0.06902212
7.575	0.069525
7.58	0.07002371
7.585	0.070473
7.59	0.07093789
7.595	0.07140586
7.6	0.07186859
7.605	0.07231606
7.61	0.07266059
7.615	0.07297906
7.62	0.07329435
7.625	0.073638
7.63	0.07397273
7.635	0.07434191
7.64	0.07471826
7.645	0.07499695
7.65	0.07529125
7.655	0.07559286
7.66	0.07596574
7.665	0.07647221
7.67	0.07694871
7.675	0.0775936
7.68	0.07823348
7.685	0.07884909
7.69	0.07925682
7.695	0.07939408
7.7	0.07945708
7.705	0.07939339
7.71	0.07946514
7.715	0.07950743
7.72	0.07961397
7.725	0.07973307
7.73	0.07985144
7.735	0.07997885
7.74	0.08012251
7.745	0.08031131
7.75	0.08054249
7.755	0.08077822
7.76	0.0811403
7.765	0.08147927
7.77	0.0819687
7.775	0.08247693
7.78	0.08306044
7.785	0.08360344
7.79	0.08417971
7.795	0.08479742
7.8	0.08540782
7.805	0.08602219
7.81	0.08666022
7.815	0.08734206
7.82	0.08802579
7.825	0.08868703
7.83	0.08934707
7.835	0.09001553
7.84	0.09065422
7.845	0.09129006
7.85	0.09195146
7.855	0.09261996
7.86	0.09329853
7.865	0.09385836
7.87	0.09419461
7.875	0.0945378
7.88	0.09451905
7.885	0.09446801
7.89	0.09443245
7.895	0.09442969
7.9	0.09457039
7.905	0.0947279
7.91	0.09487582
7.915	0.09480914
7.92	0.09475955
7.925	0.09457683
7.93	0.09435973
7.935	0.09417221
7.94	0.09399092
7.945	0.09380467
7.95	0.0935472
7.955	0.09324736
7.96	0.09294528
7.965	0.09234484
7.97	0.09176934
7.975	0.09094774
7.98	0.09015697
7.985	0.08927428
7.99	0.0884533
7.995	0.08760436
8	0.08665123
8.005	0.08569626
8.01	0.08471603
8.015	0.08368648
8.02	0.08262416
8.025	0.08155337
8.03	0.08051719
8.035	0.07946068
8.04	0.07842218
8.045	0.07739617
8.05	0.07634699
8.055	0.07530071
8.06	0.07425118
8.065	0.07316893
8.07	0.07213063
8.075	0.07122525
8.08	0.07033516
8.085	0.06969736
8.09	0.06902777
8.095	0.0683484
8.1	0.06771235
8.105	0.06705106
8.11	0.06643134
8.115	0.06592189
8.12	0.06556306
8.125	0.06520186
8.13	0.06494341
8.135	0.06472587
8.14	0.06445217
8.145	0.06416596
8.15	0.06383669
8.155	0.06355091
8.16	0.06325045
8.165	0.06294197
8.17	0.06287186
8.175	0.06281002
8.18	0.06289392
8.185	0.06290517
8.19	0.06287169
8.195	0.0627099
8.2	0.06255534
8.205	0.06244097
8.21	0.06230718
8.215	0.06218711
8.22	0.06212109
8.225	0.06207272
8.23	0.06201582
8.235	0.06184671
8.24	0.06168662
8.245	0.06153755
8.25	0.0613469
8.255	0.06129704
8.26	0.06123423
8.265	0.06106474
8.27	0.06087861
8.275	0.06070982
8.28	0.06061446
8.285	0.06048146
8.29	0.06039032
8.295	0.06037034
8.3	0.06041822
8.305	0.06046323
8.31	0.06047774
8.315	0.06050103
8.32	0.06040787
8.325	0.06034831
8.33	0.060283
8.335	0.060214
8.34	0.06012663
8.345	0.06013657
8.35	0.06016358
8.355	0.06022764
8.36	0.06029354
8.365	0.06041379
8.37	0.06055814
8.375	0.06070099
8.38	0.06083151
8.385	0.06100626
8.39	0.06120231
8.395	0.06147625
8.4	0.06179371
8.405	0.06210119
8.41	0.06243683
8.415	0.06280428
8.42	0.06317927
8.425	0.06350598
8.43	0.06382754
8.435	0.064196
8.44	0.06460743
8.445	0.06500592
8.45	0.06524836
8.455	0.06551545
8.46	0.06564028
8.465	0.0657556
8.47	0.06594307
8.475	0.06614345
8.48	0.06634134
8.485	0.0664041
8.49	0.06645421
8.495	0.06645152
8.5	0.06644796
8.505	0.06633473
8.51	0.06622766
8.515	0.06619046
8.52	0.06603559
8.525	0.06594777
8.53	0.06580376
8.535	0.06566071
8.54	0.06555121
8.545	0.06543539
8.55	0.06519221
8.555	0.06493185
8.56	0.0647352
8.565	0.06458597
8.57	0.06440807
8.575	0.0642181
8.58	0.06400705
8.585	0.06380594
8.59	0.06357514
8.595	0.06339431
8.6	0.06320262
8.605	0.06302285
8.61	0.06285213
8.615	0.06266787
8.62	0.06246458
8.625	0.062231
8.63	0.06202869
8.635	0.06182837
8.64	0.06158169
8.645	0.06135014
8.65	0.06114081
8.655	0.06103896
8.66	0.06093164
8.665	0.0607261
8.67	0.06055547
8.675	0.06037015
8.68	0.06025004
8.685	0.06010776
8.69	0.06013459
8.695	0.06018264
8.7	0.06022101
8.705	0.06018939
8.71	0.0602228
8.715	0.06024549
8.72	0.06018087
8.725	0.06025517
8.73	0.06032375
8.735	0.06045465
8.74	0.06059326
8.745	0.0606695
8.75	0.06076232
8.755	0.06092272
8.76	0.06110373
8.765	0.06115339
8.77	0.06110509
8.775	0.06128889
8.78	0.06144128
8.785	0.06179066
8.79	0.06215897
8.795	0.06251356
8.8	0.06286467
8.805	0.06321527
8.81	0.0636
8.815	0.06398489
8.82	0.06436765
8.825	0.06472831
8.83	0.06519229
8.835	0.0656179
8.84	0.0660513
8.845	0.06644271
8.85	0.06683454
8.855	0.06718494
8.86	0.06758176
8.865	0.06797923
8.87	0.06848894
8.875	0.06895124
8.88	0.06940796
8.885	0.06975278
8.89	0.07010528
8.895	0.07028678
8.9	0.07047313
8.905	0.07070831
8.91	0.07097957
8.915	0.07123833
8.92	0.0715149
8.925	0.07181448
8.93	0.07206125
8.935	0.07231118
8.94	0.07252777
8.945	0.07281973
8.95	0.0732268
8.955	0.07362129
8.96	0.07402559
8.965	0.07444567
8.97	0.07491492
8.975	0.07542066
8.98	0.075545
8.985	0.07569308
8.99	0.07554721
8.995	0.07538475
9	0.07523988
9.005	0.0750004
9.01	0.07476246
9.015	0.07447207
9.02	0.07417431
9.025	0.07388311
9.03	0.0736495
9.035	0.07325316
9.04	0.07287461
9.045	0.07247259
9.05	0.07213308
9.055	0.07179568
9.06	0.07147875
9.065	0.07107212
9.07	0.07069523
9.075	0.0703019
9.08	0.06992812
9.085	0.06955904
9.09	0.06926154
9.095	0.06897242
9.1	0.06882068
9.105	0.06865468
9.11	0.0684451
9.115	0.0682426
9.12	0.06805463
9.125	0.06786631
9.13	0.06772707
9.135	0.06755945
9.14	0.06741701
9.145	0.06726088
9.15	0.06692807
9.155	0.06637978
9.16	0.06583669
9.165	0.0652677
9.17	0.06462354
9.175	0.06396598
9.18	0.0633087
9.185	0.06289565
9.19	0.06248538
9.195	0.06225803
9.2	0.06199871
9.205	0.06176765
9.21	0.06161265
9.215	0.06159063
9.22	0.061614
9.225	0.06164244
9.23	0.06169509
9.235	0.061739
9.24	0.06187947
9.245	0.06205325
9.25	0.06226134
9.255	0.06241903
9.26	0.06255791
9.265	0.06274151
9.27	0.06297502
9.275	0.0631723
9.28	0.0633622
9.285	0.06355351
9.29	0.06374396
9.295	0.0639196
9.3	0.064088
9.305	0.06415983
9.31	0.06424308
9.315	0.06434039
9.32	0.06442943
9.325	0.06452254
9.33	0.06456589
9.335	0.06452829
9.34	0.06451989
9.345	0.06437356
9.35	0.0642482
9.355	0.06420779
9.36	0.06429114
9.365	0.06442428
9.37	0.06456737
9.375	0.0647797
9.38	0.06500327
9.385	0.06528292
9.39	0.06554524
9.395	0.06579752
9.4	0.06606169
9.405	0.06638505
9.41	0.06663604
9.415	0.06692835
9.42	0.06699972
9.425	0.06704374
9.43	0.06709175
9.435	0.0670821
9.44	0.06697721
9.445	0.06697464
9.45	0.06692006
9.455	0.06687157
9.46	0.06682629
9.465	0.06678468
9.47	0.06667274
9.475	0.06654817
9.48	0.06641334
9.485	0.06639052
9.49	0.06637134
9.495	0.06649141
9.5	0.06658072
9.505	0.06668413
9.51	0.06685055
9.515	0.06704208
9.52	0.06725251
9.525	0.06747086
9.53	0.06765788
9.535	0.06794191
9.54	0.06831632
9.545	0.06872883
9.55	0.06922686
9.555	0.06975896
9.56	0.07032717
9.565	0.07090823
9.57	0.07137963
9.575	0.0718432
9.58	0.07229795
9.585	0.0727705
9.59	0.0731351
9.595	0.07348687
9.6	0.07383675
9.605	0.07415241
9.61	0.07442843
9.615	0.07473787
9.62	0.0749726
9.625	0.07527104
9.63	0.07561442
9.635	0.0759661
9.64	0.0763872
9.645	0.07682663
9.65	0.07717191
9.655	0.07752641
9.66	0.07781653
9.665	0.07810909
9.67	0.07840275
9.675	0.07873064
9.68	0.07909834
9.685	0.07945272
9.69	0.07963881
9.695	0.07982027
9.7	0.07977335
9.705	0.0797551
9.71	0.0797379
9.715	0.07967468
9.72	0.07957534
9.725	0.079494
9.73	0.07948054
9.735	0.07954249
9.74	0.07949347
9.745	0.07934864
9.75	0.07913936
9.755	0.07893419
9.76	0.07866013
9.765	0.07832085
9.77	0.07792458
9.775	0.07759408
9.78	0.0772664
9.785	0.07692822
9.79	0.07663695
9.795	0.07638072
9.8	0.07620356
9.805	0.07600709
9.81	0.07582375
9.815	0.07562873
9.82	0.07543276
9.825	0.0752704
9.83	0.07512771
9.835	0.0749462
9.84	0.07478771
9.845	0.07456403
9.85	0.07434929
9.855	0.07406649
9.86	0.07378922
9.865	0.0735546
9.87	0.07333158
9.875	0.07311729
9.88	0.07285792
9.885	0.07252461
9.89	0.07220396
9.895	0.07196924
9.9	0.07172862
9.905	0.07161676
9.91	0.07149821
9.915	0.07135173
9.92	0.07134915
9.925	0.07138291
9.93	0.07139109
9.935	0.07122887
9.94	0.07092934
9.945	0.07069299
9.95	0.07050923
9.955	0.07037765
9.96	0.07026034
9.965	0.07022172
9.97	0.07022385
9.975	0.07026308
9.98	0.07026688
9.985	0.07027117
9.99	0.0701956
9.995	0.06996689
10	0.06974549
10.005	0.06940015
10.01	0.06916097
10.015	0.06891911
10.02	0.06877641
10.025	0.06863534
10.03	0.06852025
10.035	0.06841576
10.04	0.06828515
10.045	0.0680521
10.05	0.06782401
10.055	0.06761248
10.06	0.06747854
10.065	0.06735856
10.07	0.0672498
10.075	0.06714562
10.08	0.06703437
10.085	0.06695108
10.09	0.06691785
10.095	0.06689432
10.1	0.06696773
10.105	0.06721781
10.11	0.06750433
10.115	0.06777755
10.12	0.06807219
10.125	0.06821156
10.13	0.06829425
10.135	0.06829254
10.14	0.06838625
10.145	0.0685747
10.15	0.06884303
10.155	0.069118
10.16	0.06936287
10.165	0.06956288
10.17	0.06969479
10.175	0.06983463
10.18	0.06998323
10.185	0.07014781
10.19	0.07031547
10.195	0.07053706
10.2	0.07082452
10.205	0.07111603
10.21	0.07146653
10.215	0.07164416
10.22	0.07183762
10.225	0.07188075
10.23	0.07193625
10.235	0.07197254
10.24	0.07201658
10.245	0.07209202
10.25	0.07222455
10.255	0.0723915
10.26	0.07255888
10.265	0.07272006
10.27	0.07285996
10.275	0.07298039
10.28	0.07307534
10.285	0.07316068
10.29	0.07326753
10.295	0.0734934
10.3	0.07378424
10.305	0.07394396
10.31	0.07379775
10.315	0.07356439
10.32	0.0733657
10.325	0.07314116
10.33	0.07287681
10.335	0.072683
10.34	0.0725783
10.345	0.07247394
10.35	0.07236815
10.355	0.07210773
10.36	0.07195956
10.365	0.07183075
10.37	0.07175234
10.375	0.07171142
10.38	0.0716656
10.385	0.07160017
10.39	0.07155677
10.395	0.07157718
10.4	0.07165351
10.405	0.07173509
10.41	0.07181261
10.415	0.07196268
10.42	0.07220119
10.425	0.07245906
10.43	0.07280072
10.435	0.073134
10.44	0.07351018
10.445	0.07384208
10.45	0.07417521
10.455	0.07452475
10.46	0.07482577
10.465	0.0751508
10.47	0.07551846
10.475	0.07591177
10.48	0.07631288
10.485	0.07672935
10.49	0.07715237
10.495	0.07754639
10.5	0.07777171
10.505	0.07791276
10.51	0.07817151
10.515	0.07861343
10.52	0.07910019
10.525	0.07953653
10.53	0.08001069
10.535	0.08054738
10.54	0.08102081
10.545	0.08146007
10.55	0.08190692
10.555	0.08230103
10.56	0.08276066
10.565	0.08300447
10.57	0.08324395
10.575	0.08345895
10.58	0.08368152
10.585	0.08387425
10.59	0.08407384
10.595	0.08423721
10.6	0.08428605
10.605	0.08426228
10.61	0.08423799
10.615	0.08421941
10.62	0.08402541
10.625	0.08382664
10.63	0.08356546
10.635	0.08328422
10.64	0.08298024
10.645	0.08257384
10.65	0.08221228
10.655	0.08184669
10.66	0.08144882
10.665	0.08108807
10.67	0.08068178
10.675	0.08023221
10.68	0.07974498
10.685	0.07925388
10.69	0.0787653
10.695	0.07827472
10.7	0.07783759
10.705	0.07740273
10.71	0.07696181
10.715	0.07632704
10.72	0.07558908
10.725	0.07485546
10.73	0.07413658
10.735	0.07335496
10.74	0.07256443
10.745	0.07178688
10.75	0.07101946
10.755	0.07022388
10.76	0.0694558
10.765	0.06866538
10.77	0.06800801
10.775	0.06733809
10.78	0.06664422
10.785	0.0658714
10.79	0.06511993
10.795	0.06435852
10.8	0.06361678
10.805	0.06296206
10.81	0.06235693
10.815	0.06171284
10.82	0.06107533
10.825	0.06057049
10.83	0.060076
10.835	0.05961671
10.84	0.05916639
10.845	0.05873707
10.85	0.05838074
10.855	0.05796097
10.86	0.05753716
10.865	0.05713811
10.87	0.05669351
10.875	0.05627383
10.88	0.0558096
10.885	0.05536065
10.89	0.05490018
10.895	0.05440772
10.9	0.05390662
10.905	0.05325787
10.91	0.05261896
10.915	0.05212952
10.92	0.05181885
10.925	0.05166116
10.93	0.05147106
10.935	0.05128488
10.94	0.05122354
10.945	0.05123411
10.95	0.05124135
10.955	0.05126993
10.96	0.05130057
10.965	0.05133155
10.97	0.05138476
10.975	0.0514786
10.98	0.05159124
10.985	0.05171745
10.99	0.05196011
10.995	0.05220561
11	0.05247154
11.005	0.0527315
11.01	0.05299047
11.015	0.0532945
11.02	0.05365539
11.025	0.05404737
11.03	0.05445579
11.035	0.05488255
11.04	0.05531527
11.045	0.0557694
11.05	0.05623429
11.055	0.05672319
11.06	0.05723559
11.065	0.05772867
11.07	0.05831298
11.075	0.05891574
11.08	0.05955562
11.085	0.06022141
11.09	0.06093962
11.095	0.06164722
11.1	0.0624308
11.105	0.06320254
11.11	0.06404144
11.115	0.06488714
11.12	0.06549328
11.125	0.06607205
11.13	0.06656941
11.135	0.06708909
11.14	0.06769226
11.145	0.0681672
11.15	0.06857675
11.155	0.0689984
11.16	0.06935827
11.165	0.06974718
11.17	0.07013929
11.175	0.07051945
11.18	0.0708217
11.185	0.07113305
11.19	0.0714682
11.195	0.07172448
11.2	0.07197412
11.205	0.07219735
11.21	0.07241414
11.215	0.07259457
11.22	0.07270683
11.225	0.07279331
11.23	0.07281338
11.235	0.0728154
11.24	0.0727602
11.245	0.07272364
11.25	0.07265326
11.255	0.0726345
11.26	0.07258495
11.265	0.07254828
11.27	0.07253017
11.275	0.07234352
11.28	0.07216224
11.285	0.07191212
11.29	0.07166789
11.295	0.07133005
11.3	0.07100697
11.305	0.07056258
11.31	0.07016971
11.315	0.06975146
11.32	0.06934352
11.325	0.06914125
11.33	0.06895092
11.335	0.06880795
11.34	0.06862511
11.345	0.06827815
11.35	0.06799035
11.355	0.06772733
11.36	0.06744234
11.365	0.067208
11.37	0.06690709
11.375	0.06660371
11.38	0.0663724
11.385	0.06619401
11.39	0.06596733
11.395	0.06576226
11.4	0.06560876
11.405	0.06550981
11.41	0.06542118
11.415	0.06534772
11.42	0.06528982
11.425	0.06523074
11.43	0.06518368
11.435	0.06512664
11.44	0.06508312
11.445	0.06507799
11.45	0.06506232
11.455	0.06506454
11.46	0.06495664
11.465	0.06487795
11.47	0.06477215
11.475	0.06471491
11.48	0.06476488
11.485	0.06486457
11.49	0.06499975
11.495	0.06521218
11.5	0.06549063
11.505	0.06577819
11.51	0.06614038
11.515	0.06639671
11.52	0.06667167
11.525	0.06695141
11.53	0.06706318
11.535	0.06717429
11.54	0.06718408
11.545	0.06721258
11.55	0.06731861
11.555	0.06742501
11.56	0.06745654
11.565	0.06750261
11.57	0.06752895
11.575	0.06761921
11.58	0.06770336
11.585	0.06768378
11.59	0.06764691
11.595	0.06762946
11.6	0.06751604
11.605	0.0674789
11.61	0.06739805
11.615	0.06735205
11.62	0.06737642
11.625	0.06738784
11.63	0.06742556
11.635	0.06748744
11.64	0.06759636
11.645	0.06776156
11.65	0.06795068
11.655	0.06809567
11.66	0.0682384
11.665	0.06841046
11.67	0.068564
11.675	0.06875312
11.68	0.06882333
11.685	0.06890892
11.69	0.06887988
11.695	0.06887237
11.7	0.06872925
11.705	0.06856283
11.71	0.06836095
11.715	0.06815005
11.72	0.06798957
11.725	0.06782004
11.73	0.06768367
11.735	0.06767675
11.74	0.06767589
11.745	0.06774332
11.75	0.06781498
11.755	0.06788505
11.76	0.0679552
11.765	0.06808053
11.77	0.06821583
11.775	0.06835545
11.78	0.06844827
11.785	0.06854258
11.79	0.06867853
11.795	0.06881174
11.8	0.0689501
11.805	0.06915583
11.81	0.06920339
11.815	0.06919551
11.82	0.06914022
11.825	0.06893153
11.83	0.06873107
11.835	0.06853589
11.84	0.06829972
11.845	0.06804882
11.85	0.06767085
11.855	0.06722228
11.86	0.06681864
11.865	0.0664301
11.87	0.06602655
11.875	0.06562155
11.88	0.0651796
11.885	0.06489958
11.89	0.06455099
11.895	0.06426668
11.9	0.06397238
11.905	0.06380852
11.91	0.06371349
11.915	0.06361615
11.92	0.06351835
11.925	0.06348929
11.93	0.06346485
11.935	0.06340886
11.94	0.06329282
11.945	0.06318792
11.95	0.06311478
11.955	0.0630494
11.96	0.06302191
11.965	0.06299398
11.97	0.06296071
11.975	0.06291514
11.98	0.06289535
11.985	0.06289191
11.99	0.06295518
11.995	0.06302378
12	0.06314863
12.005	0.06331167
12.01	0.06343643
12.015	0.06363334
12.02	0.0638755
12.025	0.06411579
12.03	0.06442067
12.035	0.06474581
12.04	0.06507964
12.045	0.06544605
12.05	0.06580893
12.055	0.06625334
12.06	0.06673519
12.065	0.06719404
12.07	0.06762004
12.075	0.0680441
12.08	0.06846029
12.085	0.06887883
12.09	0.06912166
12.095	0.06940008
12.1	0.06968528
12.105	0.06993008
12.11	0.07007599
12.115	0.07010682
12.12	0.07017032
12.125	0.07021497
12.13	0.07012916
12.135	0.07002828
12.14	0.06992109
12.145	0.06978616
12.15	0.06963244
12.155	0.06944063
12.16	0.06924362
12.165	0.06901431
12.17	0.06879336
12.175	0.06858414
12.18	0.06852142
12.185	0.06841835
12.19	0.06833926
12.195	0.06814388
12.2	0.06789083
12.205	0.06754301
12.21	0.06721628
12.215	0.06691766
12.22	0.06662438
12.225	0.06633814
12.23	0.06608252
12.235	0.06584166
12.24	0.06558679
12.245	0.06530565
12.25	0.06499425
12.255	0.06468927
12.26	0.06436023
12.265	0.06402958
12.27	0.06369783
12.275	0.06343822
12.28	0.0631981
12.285	0.06322241
12.29	0.06329526
12.295	0.06360414
12.3	0.06392344
12.305	0.06422711
12.31	0.06459969
12.315	0.06499689
12.32	0.06549733
12.325	0.06599507
12.33	0.06649159
12.335	0.06704781
12.34	0.06762465
12.345	0.06816141
12.35	0.06871927
12.355	0.06924521
12.36	0.06976253
12.365	0.07034616
12.37	0.07089152
12.375	0.07142136
12.38	0.071937
12.385	0.07218961
12.39	0.07247324
12.395	0.07273326
12.4	0.07304762
12.405	0.07342388
12.41	0.07384433
12.415	0.07413744
12.42	0.07441459
12.425	0.07467371
12.43	0.07493567
12.435	0.07519589
12.44	0.07545322
12.445	0.07570544
12.45	0.07596194
12.455	0.07623967
12.46	0.07651171
12.465	0.07678272
12.47	0.07705468
12.475	0.07734115
12.48	0.0775739
12.485	0.07782063
12.49	0.07766718
12.495	0.07747272
12.5	0.07703788
12.505	0.07659127
12.51	0.07618092
12.515	0.07570699
12.52	0.07525638
12.525	0.07473027
12.53	0.07416873
12.535	0.07362454
12.54	0.07313647
12.545	0.07273332
12.55	0.0724374
12.555	0.0721478
12.56	0.07189134
12.565	0.07165325
12.57	0.07129712
12.575	0.07099865
12.58	0.07089556
12.585	0.07079957
12.59	0.07103274
12.595	0.07123854
12.6	0.07144077
12.605	0.07163484
12.61	0.07179026
12.615	0.07196631
12.62	0.0722043
12.625	0.07245203
12.63	0.07278782
12.635	0.07311069
12.64	0.07340038
12.645	0.07373488
12.65	0.07406626
12.655	0.07440009
12.66	0.0747145
12.665	0.07503935
12.67	0.07537854
12.675	0.07573292
12.68	0.076069
12.685	0.07636978
12.69	0.07664107
12.695	0.07711288
12.7	0.07754931
12.705	0.07809763
12.71	0.07865862
12.715	0.07916869
12.72	0.079736
12.725	0.08029558
12.73	0.08088371
12.735	0.081465
12.74	0.08202402
12.745	0.08254499
12.75	0.08292127
12.755	0.08315191
12.76	0.08338072
12.765	0.08368743
12.77	0.08397608
12.775	0.08429784
12.78	0.08457692
12.785	0.08457778
12.79	0.08458008
12.795	0.08422576
12.8	0.08388246
12.805	0.08354305
12.81	0.08320888
12.815	0.08291884
12.82	0.08260961
12.825	0.08233361
12.83	0.0820623
12.835	0.08167778
12.84	0.08129458
12.845	0.08092704
12.85	0.08047772
12.855	0.0800298
12.86	0.0795762
12.865	0.07911606
12.87	0.0786365
12.875	0.07811131
12.88	0.07754512
12.885	0.07697073
12.89	0.076461
12.895	0.07596202
12.9	0.0756119
12.905	0.07560397
12.91	0.0758752
12.915	0.07643679
12.92	0.07698767
12.925	0.07749176
12.93	0.07804022
12.935	0.07858516
12.94	0.07914368
12.945	0.07971392
12.95	0.08020025
12.955	0.08071091
12.96	0.0812996
12.965	0.08188899
12.97	0.08229937
12.975	0.08271812
12.98	0.08312617
12.985	0.08384688
12.99	0.08463321
12.995	0.08559863
13	0.08671764
13.005	0.08782814
13.01	0.08892461
13.015	0.09005332
13.02	0.09111106
13.025	0.09215927
13.03	0.09319388
13.035	0.09425308
13.04	0.09537539
13.045	0.09650729
13.05	0.09763546
13.055	0.09878092
13.06	0.09991411
13.065	0.1010376
13.07	0.1021555
13.075	0.1032723
13.08	0.1044229
13.085	0.1055866
13.09	0.1067444
13.095	0.1079108
13.1	0.1090856
13.105	0.1100513
13.11	0.1106349
13.115	0.1108409
13.12	0.1106057
13.125	0.1103787
13.13	0.110129
13.135	0.1097927
13.14	0.1094523
13.145	0.1091362
13.15	0.1089021
13.155	0.1087149
13.16	0.1085828
13.165	0.1084475
13.17	0.1083043
13.175	0.1082308
13.18	0.1081666
13.185	0.1081144
13.19	0.107609
13.195	0.1071573
13.2	0.106402
13.205	0.1056587
13.21	0.1049452
13.215	0.1042283
13.22	0.1034303
13.225	0.1026546
13.23	0.1018505
13.235	0.1009875
13.24	0.1000671
13.245	0.09906946
13.25	0.09805107
13.255	0.09703056
13.26	0.09600082
13.265	0.0949599
13.27	0.09390695
13.275	0.09284418
13.28	0.09177956
13.285	0.09065455
13.29	0.08949808
13.295	0.08834711
13.3	0.08704419
13.305	0.08566445
13.31	0.08433122
13.315	0.08314359
13.32	0.08218651
13.325	0.08152823
13.33	0.08087059
13.335	0.08024683
13.34	0.07968639
13.345	0.07912672
13.35	0.07849112
13.355	0.07759874
13.36	0.07673587
13.365	0.07575531
13.37	0.07477381
13.375	0.07379008
13.38	0.07278443
13.385	0.07173957
13.39	0.07066603
13.395	0.06991284
13.4	0.0690938
13.405	0.0685011
13.41	0.06788973
13.415	0.06717623
13.42	0.06646092
13.425	0.06578871
13.43	0.06510052
13.435	0.06444239
13.44	0.06386478
13.445	0.06323428
13.45	0.06264899
13.455	0.06199518
13.46	0.06126252
13.465	0.06054119
13.47	0.05984617
13.475	0.05914386
13.48	0.05842868
13.485	0.05764965
13.49	0.0568902
13.495	0.05610958
13.5	0.05528458
13.505	0.05459513
13.51	0.05396391
13.515	0.05340434
13.52	0.05293814
13.525	0.05249395
13.53	0.05204596
13.535	0.05159977
13.54	0.05114965
13.545	0.05069134
13.55	0.0502659
13.555	0.04989462
13.56	0.04973356
13.565	0.04944925
13.57	0.04926392
13.575	0.04907754
13.58	0.0488993
13.585	0.04874874
13.59	0.04867046
13.595	0.04861887
13.6	0.0486672
13.605	0.04873392
13.61	0.04877939
13.615	0.04882932
13.62	0.048869
13.625	0.04889328
13.63	0.0489181
13.635	0.04897423
13.64	0.04905355
13.645	0.04905155
13.65	0.04913073
13.655	0.04923318
13.66	0.04939574
13.665	0.04963181
13.67	0.04986559
13.675	0.05002099
13.68	0.05017693
13.685	0.05034949
13.69	0.05055955
13.695	0.0507995
13.7	0.05105956
13.705	0.05134576
13.71	0.0516158
13.715	0.0518714
13.72	0.05211951
13.725	0.05234897
13.73	0.05254437
13.735	0.05275389
13.74	0.05295541
13.745	0.05314734
13.75	0.05337559
13.755	0.05363416
13.76	0.05389684
13.765	0.05424458
13.77	0.05466292
13.775	0.055052
13.78	0.0554108
13.785	0.05576187
13.79	0.05607315
13.795	0.05628794
13.8	0.05648637
13.805	0.05656374
13.81	0.05665423
13.815	0.05675835
13.82	0.05686164
13.825	0.05704118
13.83	0.05722193
13.835	0.05742589
13.84	0.05761323
13.845	0.05773528
13.85	0.05788215
13.855	0.0580503
13.86	0.0581877
13.865	0.05833846
13.87	0.05844884
13.875	0.05860201
13.88	0.05881542
13.885	0.05913448
13.89	0.0594419
13.895	0.05981237
13.9	0.06017263
13.905	0.06052719
13.91	0.06080704
13.915	0.06111707
13.92	0.06140746
13.925	0.06176201
13.93	0.0621202
13.935	0.06248948
13.94	0.06283962
13.945	0.06318874
13.95	0.06354775
13.955	0.06385206
13.96	0.06403981
13.965	0.06421526
13.97	0.0642269
13.975	0.06423156
13.98	0.06432894
13.985	0.0644302
13.99	0.06455128
13.995	0.06469056
14	0.06487823
14.005	0.06506014
14.01	0.06526879
14.015	0.0655
14.02	0.06573181
14.025	0.06596835
14.03	0.06626808
14.035	0.0666344
14.04	0.06705023
14.045	0.06750188
14.05	0.06798291
14.055	0.06847721
14.06	0.06894348
14.065	0.0694356
14.07	0.06990347
14.075	0.07038732
14.08	0.07073071
14.085	0.07101905
14.09	0.07114763
14.095	0.07126457
14.1	0.07127332
14.105	0.07123517
14.11	0.07121806
14.115	0.07129074
14.12	0.07133291
14.125	0.07144954
14.13	0.0714559
14.135	0.07147253
14.14	0.07148817
14.145	0.0715305
14.15	0.07158361
14.155	0.07173771
14.16	0.07194012
14.165	0.0721765
14.17	0.07279779
14.175	0.07413929
14.18	0.07583998
14.185	0.0778268
14.19	0.07976804
14.195	0.08161825
14.2	0.08344188
14.205	0.08522133
14.21	0.08699282
14.215	0.08882728
14.22	0.09058623
14.225	0.0923232
14.23	0.09406309
14.235	0.09563208
14.24	0.09711263
14.245	0.09847128
14.25	0.09974978
14.255	0.1010115
14.26	0.1022529
14.265	0.1034751
14.27	0.1046672
14.275	0.1059668
14.28	0.107349
14.285	0.1087924
14.29	0.1102363
14.295	0.1117181
14.3	0.1132138
14.305	0.1147594
14.31	0.1163043
14.315	0.117805
14.32	0.1192452
14.325	0.1206518
14.33	0.1219807
14.335	0.1233322
14.34	0.1246866
14.345	0.1262216
14.35	0.1277129
14.355	0.1292535
14.36	0.130665
14.365	0.1320258
14.37	0.1333894
14.375	0.1343794
14.38	0.1346446
14.385	0.1345253
14.39	0.1339108
14.395	0.1332959
14.4	0.1327058
14.405	0.1321384
14.41	0.1315763
14.415	0.1309878
14.42	0.13028
14.425	0.129643
14.43	0.1290327
14.435	0.1284395
14.44	0.1279164
14.445	0.1273863
14.45	0.12689
14.455	0.1264158
14.46	0.1259696
14.465	0.1255184
14.47	0.1250754
14.475	0.1246345
14.48	0.1240079
14.485	0.1232144
14.49	0.1223989
14.495	0.121577
14.5	0.1207313
14.505	0.1198297
14.51	0.1189038
14.515	0.117991
14.52	0.1171006
14.525	0.1162031
14.53	0.1153958
14.535	0.1146103
14.54	0.113873
14.545	0.1130908
14.55	0.1118628
14.555	0.11073
14.56	0.1094911
14.565	0.1083677
14.57	0.1072574
14.575	0.1061385
14.58	0.1051414
14.585	0.1046014
14.59	0.1043338
14.595	0.1044706
14.6	0.1046127
14.605	0.1048282
14.61	0.105007
14.615	0.1051609
14.62	0.1053231
14.625	0.1055415
14.63	0.1056558
14.635	0.10572
14.64	0.1056757
14.645	0.1056085
14.65	0.1055734
14.655	0.1055524
14.66	0.1055736
14.665	0.1055386
14.67	0.1055005
14.675	0.1054772
14.68	0.105459
14.685	0.105537
14.69	0.1057014
14.695	0.1058537
14.7	0.1060079
14.705	0.1061499
14.71	0.1063312
14.715	0.1064233
14.72	0.1065011
14.725	0.1065407
14.73	0.1066401
14.735	0.106598
14.74	0.1065354
14.745	0.1064083
14.75	0.1062777
14.755	0.1063816
14.76	0.1064379
14.765	0.1064224
14.77	0.1063685
14.775	0.1063146
14.78	0.1062376
14.785	0.1063034
14.79	0.1063709
14.795	0.1062481
14.8	0.1060192
14.805	0.1057833
14.81	0.1053654
14.815	0.1048734
14.82	0.1043949
14.825	0.1039385
14.83	0.1034896
14.835	0.1030485
14.84	0.102559
14.845	0.1020774
14.85	0.1015967
14.855	0.1011052
14.86	0.1006196
14.865	0.100268
14.87	0.09992295
14.875	0.09968009
14.88	0.09944969
14.885	0.09922028
14.89	0.0990071
14.895	0.09880179
14.9	0.0986297
14.905	0.0984553
14.91	0.09830649
14.915	0.09813566
14.92	0.09804293
14.925	0.09791297
14.93	0.09784158
14.935	0.09789513
14.94	0.09800649
14.945	0.09820428
14.95	0.09831887
14.955	0.09850616
14.96	0.09870995
14.965	0.09871111
14.97	0.09894851
14.975	0.09919204
14.98	0.09944395
14.985	0.09969852
14.99	0.09978468
14.995	0.09987451
15	0.1001205
15.005	0.1004099
15.01	0.1006922
15.015	0.1011151
15.02	0.1016056
15.025	0.1021049
15.03	0.1026143
15.035	0.1031555
15.04	0.1037134
15.045	0.104446
15.05	0.1052333
15.055	0.1060275
15.06	0.1068423
15.065	0.1076102
15.07	0.1079997
15.075	0.1084004
15.08	0.1086929
15.085	0.1089399
15.09	0.1091859
15.095	0.1094131
15.1	0.1096373
15.105	0.1098187
15.11	0.1100074
15.115	0.1101955
15.12	0.1103868
15.125	0.11057
15.13	0.1108228
15.135	0.1110236
15.14	0.1110159
15.145	0.1110341
15.15	0.1109311
15.155	0.1110055
15.16	0.1111451
15.165	0.1112868
15.17	0.111552
15.175	0.1115635
15.18	0.1114058
15.185	0.1112314
15.19	0.1110632
15.195	0.1109704
15.2	0.1108939
15.205	0.1107809
15.21	0.1107157
15.215	0.1106567
15.22	0.1105043
15.225	0.1103469
15.23	0.1101899
15.235	0.1099519
15.24	0.1098099
15.245	0.1096779
15.25	0.1092939
15.255	0.108902
15.26	0.1085501
15.265	0.1082548
15.27	0.1079836
15.275	0.1079728
15.28	0.1079766
15.285	0.1079498
15.29	0.1079028
15.295	0.1078524
15.3	0.1078133
15.305	0.1077763
15.31	0.1077345
15.315	0.1077118
15.32	0.1076793
15.325	0.107662
15.33	0.1076492
15.335	0.1075473
15.34	0.1074536
15.345	0.10729
15.35	0.1071582
15.355	0.1070942
15.36	0.1068429
15.365	0.1062923
15.37	0.1057458
15.375	0.1052044
15.38	0.1048736
15.385	0.1046883
15.39	0.1045597
15.395	0.1044622
15.4	0.1043764
15.405	0.104281
15.41	0.1042067
15.415	0.1040458
15.42	0.1038843
15.425	0.1037793
15.43	0.1036887
15.435	0.1035641
15.44	0.1034944
15.445	0.1031265
15.45	0.1027226
15.455	0.1024988
15.46	0.1022304
15.465	0.1018344
15.47	0.1012234
15.475	0.1006612
15.48	0.1001921
15.485	0.09975724
15.49	0.09935192
15.495	0.09898355
15.5	0.09863935
15.505	0.09827378
15.51	0.0978938
15.515	0.09755277
15.52	0.097151
15.525	0.09675107
15.53	0.09633134
15.535	0.09591155
15.54	0.09553897
15.545	0.0951723
15.55	0.09492124
15.555	0.09456137
15.56	0.09420674
15.565	0.09391012
15.57	0.09383901
15.575	0.09366329
15.58	0.09348783
15.585	0.09312971
15.59	0.09283682
15.595	0.09249768
15.6	0.0921227
15.605	0.09172543
15.61	0.09125962
15.615	0.09078538
15.62	0.09036598
15.625	0.08994487
15.63	0.08955097
15.635	0.08913425
15.64	0.08874782
15.645	0.08841445
15.65	0.08829459
15.655	0.08820869
15.66	0.08811086
15.665	0.08804743
15.67	0.08810716
15.675	0.08833862
15.68	0.08849434
15.685	0.08828797
15.69	0.08799686
15.695	0.08772421
15.7	0.08760909
15.705	0.0874215
15.71	0.08730043
15.715	0.0871935
15.72	0.08705882
15.725	0.08695069
15.73	0.08686044
15.735	0.08681293
15.74	0.08680184
15.745	0.08679339
15.75	0.08683626
15.755	0.08693897
15.76	0.08704255
15.765	0.08713471
15.77	0.08728093
15.775	0.0873844
15.78	0.08756845
15.785	0.08776945
15.79	0.0880463
15.795	0.08820506
15.8	0.08828783
15.805	0.08833834
15.81	0.08840845
15.815	0.08858775
15.82	0.08877261
15.825	0.0889409
15.83	0.08911983
15.835	0.08923061
15.84	0.08936394
15.845	0.08948196
15.85	0.08948586
15.855	0.08944207
15.86	0.08939603
15.865	0.08922297
15.87	0.08905119
15.875	0.08881975
15.88	0.08870964
15.885	0.08857317
15.89	0.08859282
15.895	0.0885893
15.9	0.08859172
15.905	0.08828918
15.91	0.08802563
15.915	0.087665
15.92	0.0873336
15.925	0.08704005
15.93	0.08675812
15.935	0.08645158
15.94	0.086073
15.945	0.08560629
15.95	0.08515912
15.955	0.08463575
15.96	0.08405421
15.965	0.0834992
15.97	0.08296952
15.975	0.08239644
15.98	0.0818687
15.985	0.08133971
15.99	0.08077687
15.995	0.08023136
16	0.07972631
16.005	0.07930882
16.01	0.07894165
16.015	0.07858276
16.02	0.07811405
16.025	0.07766315
16.03	0.0772524
16.035	0.07683686
16.04	0.07646314
16.045	0.07604099
16.05	0.07600919
16.055	0.07604349
16.06	0.0761717
16.065	0.07629653
16.07	0.07655961
16.075	0.07688351
16.08	0.07721215
16.085	0.07716017
16.09	0.07715882
16.095	0.07718019
16.1	0.07726088
16.105	0.07734298
16.11	0.0776031
16.115	0.07786549
16.12	0.07818273
16.125	0.07843052
16.13	0.07861651
16.135	0.07881136
16.14	0.07914792
16.145	0.07951428
16.15	0.08001512
16.155	0.08046143
16.16	0.08090373
16.165	0.08136006
16.17	0.08186786
16.175	0.082306
16.18	0.08274939
16.185	0.08312964
16.19	0.08350335
16.195	0.08388963
16.2	0.08427923
16.205	0.08464557
16.21	0.08499417
16.215	0.08533849
16.22	0.08562067
16.225	0.08593368
16.23	0.08622057
16.235	0.08645805
16.24	0.08667844
16.245	0.08689828
16.25	0.08715135
16.255	0.08673647
16.26	0.08640381
16.265	0.08596104
16.27	0.08555248
16.275	0.08514344
16.28	0.08462144
16.285	0.08410902
16.29	0.0838008
16.295	0.08350787
16.3	0.08322715
16.305	0.08298442
16.31	0.08282783
16.315	0.08270882
16.32	0.08265025
16.325	0.08260976
16.33	0.08259324
16.335	0.08262248
16.34	0.08261533
16.345	0.08234973
16.35	0.08210079
16.355	0.081682
16.36	0.08134068
16.365	0.08109442
16.37	0.08085552
16.375	0.08055096
16.38	0.08026768
16.385	0.08002098
16.39	0.07981821
16.395	0.07963415
16.4	0.07945456
16.405	0.07928202
16.41	0.07915275
16.415	0.079016
16.42	0.07883986
16.425	0.07871413
16.43	0.07861279
16.435	0.07852627
16.44	0.07848435
16.445	0.07845202
16.45	0.07855322
16.455	0.07867484
16.46	0.07916541
16.465	0.07947229
16.47	0.07982492
16.475	0.08010067
16.48	0.08027702
16.485	0.08051142
16.49	0.08074296
16.495	0.0809219
16.5	0.0810584
16.505	0.08119248
16.51	0.08123986
16.515	0.08114641
16.52	0.08094532
16.525	0.08063676
16.53	0.08028404
16.535	0.07993101
16.54	0.07958997
16.545	0.07928762
16.55	0.0791298
16.555	0.07894747
16.56	0.07885446
16.565	0.07866032
16.57	0.07832868
16.575	0.07802297
16.58	0.07774647
16.585	0.0775415
16.59	0.07730858
16.595	0.07707051
16.6	0.07680275
16.605	0.07651292
16.61	0.07625425
16.615	0.07596901
16.62	0.07572553
16.625	0.07552082
16.63	0.07532955
16.635	0.07516147
16.64	0.07499856
16.645	0.07477039
16.65	0.07457454
16.655	0.07416161
16.66	0.07367015
16.665	0.07317813
16.67	0.07281535
16.675	0.07246144
16.68	0.07223558
16.685	0.07207438
16.69	0.0719151
16.695	0.07176812
16.7	0.07166752
16.705	0.07159271
16.71	0.07153438
16.715	0.07153781
16.72	0.07155753
16.725	0.07166625
16.73	0.07188973
16.735	0.07213626
16.74	0.07239184
16.745	0.07265527
16.75	0.07287705
16.755	0.07311389
16.76	0.07337317
16.765	0.0736321
16.77	0.07393915
16.775	0.07433077
16.78	0.07467225
16.785	0.07507043
16.79	0.0753516
16.795	0.07562953
16.8	0.07588104
16.805	0.07613459
16.81	0.07639419
16.815	0.07653661
16.82	0.07667546
16.825	0.076749
16.83	0.07682193
16.835	0.07684188
16.84	0.07675849
16.845	0.07663008
16.85	0.07654133
16.855	0.07636907
16.86	0.07622382
16.865	0.07612124
16.87	0.0760097
16.875	0.07588112
16.88	0.07577193
16.885	0.07551727
16.89	0.07527909
16.895	0.07503865
16.9	0.07478346
16.905	0.0745087
16.91	0.07423299
16.915	0.0739885
16.92	0.07371241
16.925	0.07345066
16.93	0.07314658
16.935	0.07269497
16.94	0.07228357
16.945	0.07186747
16.95	0.07134109
16.955	0.07082235
16.96	0.07023721
16.965	0.06966118
16.97	0.06909191
16.975	0.06850839
16.98	0.067888
16.985	0.06730531
16.99	0.06658748
16.995	0.06595287
17	0.06528249
17.005	0.06462604
17.01	0.06397335
17.015	0.06332376
17.02	0.06275371
17.025	0.06219954
17.03	0.06166299
17.035	0.06109224
17.04	0.06054989
17.045	0.06007517
17.05	0.05964315
17.055	0.05920617
17.06	0.05884131
17.065	0.05852714
17.07	0.05821651
17.075	0.05801113
17.08	0.05776814
17.085	0.05755445
17.09	0.05738567
17.095	0.05718411
17.1	0.05699312
17.105	0.05698481
17.11	0.05701287
17.115	0.05717427
17.12	0.05719097
17.125	0.0572316
17.13	0.05729898
17.135	0.05738706
17.14	0.05760125
17.145	0.05772454
17.15	0.05785768
17.155	0.05804031
17.16	0.05823026
17.165	0.05846279
17.17	0.05863229
17.175	0.05876305
17.18	0.05890026
17.185	0.05904803
17.19	0.05914006
17.195	0.05934995
17.2	0.05950527
17.205	0.05976185
17.21	0.06002227
17.215	0.06027967
17.22	0.06053768
17.225	0.06079156
17.23	0.06104473
17.235	0.06135146
17.24	0.06166649
17.245	0.0621369
17.25	0.06265102
17.255	0.06318739
17.26	0.06377114
17.265	0.06434821
17.27	0.06513736
17.275	0.06594074
17.28	0.06661333
17.285	0.06725843
17.29	0.06777867
17.295	0.06833766
17.3	0.06890575
17.305	0.06946579
17.31	0.06973764
17.315	0.06997036
17.32	0.06998883
17.325	0.07010403
17.33	0.07023589
17.335	0.07040651
17.34	0.07058184
17.345	0.07071949
17.35	0.07089547
17.355	0.07105607
17.36	0.07124939
17.365	0.07144571
17.37	0.07164379
17.375	0.07186324
17.38	0.07209934
17.385	0.07234149
17.39	0.07258767
17.395	0.0728611
17.4	0.07313024
17.405	0.07344014
17.41	0.07364551
17.415	0.0738524
17.42	0.07415752
17.425	0.07447426
17.43	0.07481135
17.435	0.07513626
17.44	0.07539842
17.445	0.07566178
17.45	0.07567542
17.455	0.07565354
17.46	0.07567037
17.465	0.07560007
17.47	0.07550951
17.475	0.07504471
17.48	0.07455732
17.485	0.07405345
17.49	0.07358979
17.495	0.07319398
17.5	0.07280272
17.505	0.07240978
17.51	0.07201115
17.515	0.07174884
17.52	0.07150549
17.525	0.07137121
17.53	0.07118531
17.535	0.07096658
17.54	0.07067119
17.545	0.07039177
17.55	0.07013668
17.555	0.06985752
17.56	0.06957085
17.565	0.06929842
17.57	0.06902562
17.575	0.06879422
17.58	0.06857448
17.585	0.0684975
17.59	0.06844834
17.595	0.0683989
17.6	0.06833227
17.605	0.06816221
17.61	0.06794128
17.615	0.06780632
17.62	0.06770137
17.625	0.06738149
17.63	0.06701989
17.635	0.06660656
17.64	0.06619393
17.645	0.06581257
17.65	0.06544164
17.655	0.06523105
17.66	0.06500552
17.665	0.06459318
17.67	0.06424224
17.675	0.06398187
17.68	0.06396276
17.685	0.06390087
17.69	0.06388246
17.695	0.06387076
17.7	0.06392279
17.705	0.06391872
17.71	0.06391412
17.715	0.06387995
17.72	0.06389604
17.725	0.06390938
17.73	0.06390284
17.735	0.06392459
17.74	0.06406294
17.745	0.06425811
17.75	0.06442173
17.755	0.06464298
17.76	0.06488445
17.765	0.06515751
17.77	0.0654265
17.775	0.06578462
17.78	0.06608263
17.785	0.06637509
17.79	0.06638787
17.795	0.06634865
17.8	0.06632439
17.805	0.06634863
17.81	0.066445
17.815	0.06657369
17.82	0.06664224
17.825	0.06662739
17.83	0.06672199
17.835	0.06683615
17.84	0.06698746
17.845	0.0671412
17.85	0.06733507
17.855	0.06753549
17.86	0.06770673
17.865	0.06788528
17.87	0.06816723
17.875	0.06842797
17.88	0.06854376
17.885	0.06862787
17.89	0.06873566
17.895	0.06885702
17.9	0.06893063
17.905	0.06888874
17.91	0.06892959
17.915	0.06897019
17.92	0.06903515
17.925	0.06900897
17.93	0.06900654
17.935	0.06901535
17.94	0.06902982
17.945	0.06894139
17.95	0.068959
17.955	0.06898472
17.96	0.06897793
17.965	0.06897827
17.97	0.06897303
17.975	0.06892177
17.98	0.06872499
17.985	0.06852054
17.99	0.06831072
17.995	0.06822453
18	0.06814017
18.005	0.0680294
18.01	0.06785781
18.015	0.06770105
18.02	0.0675411
18.025	0.06740578
18.03	0.06731712
18.035	0.06727838
18.04	0.06725965
18.045	0.06721962
18.05	0.06717772
18.055	0.06705422
18.06	0.06689076
18.065	0.06674547
18.07	0.06663501
18.075	0.06658388
18.08	0.06653723
18.085	0.06661314
18.09	0.06671509
18.095	0.06691139
18.1	0.06710097
18.105	0.0673189
18.11	0.06757352
18.115	0.06772373
18.12	0.06787295
18.125	0.0680229
18.13	0.06821639
18.135	0.06837783
18.14	0.06861389
18.145	0.06883284
18.15	0.06900726
18.155	0.06892926
18.16	0.06885416
18.165	0.06867601
18.17	0.06849494
18.175	0.06828987
18.18	0.06808578
18.185	0.06797568
18.19	0.06795495
18.195	0.06793957
18.2	0.06791223
18.205	0.06792802
18.21	0.06797462
18.215	0.06805221
18.22	0.06812382
18.225	0.06819413
18.23	0.06824904
18.235	0.06830149
18.24	0.06827601
18.245	0.06821503
18.25	0.06821509
18.255	0.06822534
18.26	0.06827525
18.265	0.06834896
18.27	0.06842172
18.275	0.06844992
18.28	0.0683844
18.285	0.06832275
18.29	0.06819166
18.295	0.06807179
18.3	0.06782536
18.305	0.06757195
18.31	0.06731956
18.315	0.06710851
18.32	0.06695207
18.325	0.06680469
18.33	0.06666118
18.335	0.06651894
18.34	0.06637922
18.345	0.06611146
18.35	0.06586728
18.355	0.0656647
18.36	0.06561874
18.365	0.06557191
18.37	0.06559837
18.375	0.06562458
18.38	0.06563342
18.385	0.06568652
18.39	0.06571769
18.395	0.06558685
18.4	0.06544645
18.405	0.0653378
18.41	0.06519356
18.415	0.06501115
18.42	0.06482125
18.425	0.06460147
18.43	0.06438518
18.435	0.06418477
18.44	0.06401723
18.445	0.06386002
18.45	0.06372139
18.455	0.06347628
18.46	0.06321573
18.465	0.06296186
18.47	0.06270462
18.475	0.0624409
18.48	0.06221518
18.485	0.06201101
18.49	0.06181474
18.495	0.06161693
18.5	0.06137761
18.505	0.06114366
18.51	0.06090882
18.515	0.06068744
18.52	0.06040057
18.525	0.06010874
18.53	0.05986012
18.535	0.05963518
18.54	0.05943317
18.545	0.0592327
18.55	0.05909326
18.555	0.05892234
18.56	0.05876469
18.565	0.05857831
18.57	0.05848177
18.575	0.0583877
18.58	0.05832488
18.585	0.05828378
18.59	0.05821467
18.595	0.05803889
18.6	0.05798067
18.605	0.05792594
18.61	0.05787842
18.615	0.05781735
18.62	0.05777351
18.625	0.05773511
18.63	0.05776174
18.635	0.05792015
18.64	0.05809572
18.645	0.05823786
18.65	0.05842679
18.655	0.05861586
18.66	0.05889873
18.665	0.05924794
18.67	0.05958316
18.675	0.05993503
18.68	0.06033574
18.685	0.06080806
18.69	0.06131148
18.695	0.0617945
18.7	0.06229339
18.705	0.06278924
18.71	0.06331635
18.715	0.0638714
18.72	0.06441009
18.725	0.06498941
18.73	0.06557404
18.735	0.06606453
18.74	0.06649881
18.745	0.06688953
18.75	0.06727414
18.755	0.06762965
18.76	0.06803578
18.765	0.06848771
18.77	0.06897749
18.775	0.06931089
18.78	0.06967175
18.785	0.06997505
18.79	0.07030947
18.795	0.07063718
18.8	0.07103251
18.805	0.07140005
18.81	0.07180224
18.815	0.0722095
18.82	0.07263245
18.825	0.07306295
18.83	0.07348505
18.835	0.07385638
18.84	0.07400933
18.845	0.074137
18.85	0.0742516
18.855	0.07432475
18.86	0.07440248
18.865	0.07449502
18.87	0.07453964
18.875	0.07458604
18.88	0.07465065
18.885	0.07464332
18.89	0.07446867
18.895	0.07426376
18.9	0.07406635
18.905	0.07388606
18.91	0.0737593
18.915	0.07363789
18.92	0.07347207
18.925	0.07328665
18.93	0.07310754
18.935	0.07291301
18.94	0.07276236
18.945	0.07265036
18.95	0.0725756
18.955	0.07253358
18.96	0.07255008
18.965	0.07251481
18.97	0.07249108
18.975	0.07257154
18.98	0.07273917
18.985	0.07285991
18.99	0.07296098
18.995	0.07301033
19	0.07307415
19.005	0.07314427
19.01	0.07321937
19.015	0.07323143
19.02	0.07315851
19.025	0.07318583
19.03	0.07319971
19.035	0.07324825
19.04	0.07328596
19.045	0.07345394
19.05	0.07365189
19.055	0.07384814
19.06	0.07406029
19.065	0.07445547
19.07	0.07471957
19.075	0.07549019
19.08	0.07625714
19.085	0.07695032
19.09	0.07767031
19.095	0.07854653
19.1	0.07949222
19.105	0.08045001
19.11	0.08138154
19.115	0.08223847
19.12	0.08308354
19.125	0.08394337
19.13	0.08480984
19.135	0.08564591
19.14	0.0864974
19.145	0.0873172
19.15	0.08816531
19.155	0.08897355
19.16	0.08976309
19.165	0.09047708
19.17	0.0912724
19.175	0.09193602
19.18	0.09235961
19.185	0.09277215
19.19	0.09321784
19.195	0.09368862
19.2	0.09418208
19.205	0.09466935
19.21	0.09514942
19.215	0.09565116
19.22	0.09618122
19.225	0.09676949
19.23	0.09720604
19.235	0.09764895
19.24	0.09803953
19.245	0.09846809
19.25	0.09898421
19.255	0.09947021
19.26	0.0999817
19.265	0.1004939
19.27	0.1007863
19.275	0.1011561
19.28	0.1007329
19.285	0.1003349
19.29	0.09997004
19.295	0.09958572
19.3	0.09909345
19.305	0.09849582
19.31	0.09793568
19.315	0.09740352
19.32	0.09690902
19.325	0.09641656
19.33	0.09591173
19.335	0.09545625
19.34	0.09498673
19.345	0.09453563
19.35	0.09409506
19.355	0.09362171
19.36	0.0931841
19.365	0.09270823
19.37	0.09226736
19.375	0.09174557
19.38	0.09130159
19.385	0.09099776
19.39	0.09070795
19.395	0.09038201
19.4	0.09008473
19.405	0.08981438
19.41	0.08969261
19.415	0.08984832
19.42	0.08996906
19.425	0.0901161
19.43	0.09022208
19.435	0.09040551
19.44	0.09076361
19.445	0.0912211
19.45	0.0916312
19.455	0.09179647
19.46	0.09197358
19.465	0.09210532
19.47	0.09227375
19.475	0.09245689
19.48	0.09260532
19.485	0.09321592
19.49	0.09378338
19.495	0.09432409
19.5	0.09489113
19.505	0.09551702
19.51	0.09622666
19.515	0.09678699
19.52	0.09728997
19.525	0.09775207
19.53	0.09820856
19.535	0.0986668
19.54	0.09903001
19.545	0.09946894
19.55	0.1000711
19.555	0.1007574
19.56	0.1014166
19.565	0.1020295
19.57	0.1026672
19.575	0.1033018
19.58	0.1038635
19.585	0.1044237
19.59	0.1049665
19.595	0.1057383
19.6	0.1065239
19.605	0.1074112
19.61	0.1082341
19.615	0.108813
19.62	0.1089401
19.625	0.1090956
19.63	0.1091837
19.635	0.109315
19.64	0.1094729
19.645	0.1093312
19.65	0.1092115
19.655	0.1091119
19.66	0.1091435
19.665	0.1091776
19.67	0.1092417
19.675	0.1092435
19.68	0.1093949
19.685	0.1095624
19.69	0.1097062
19.695	0.10984
19.7	0.1100063
19.705	0.110139
19.71	0.1102384
19.715	0.1103487
19.72	0.1105283
19.725	0.1107317
19.73	0.1109857
19.735	0.1112392
19.74	0.1115008
19.745	0.111791
19.75	0.1119726
19.755	0.1117492
19.76	0.1113713
19.765	0.1109485
19.77	0.1105478
19.775	0.1101558
19.78	0.1097821
19.785	0.1094736
19.79	0.1092593
19.795	0.1090407
19.8	0.1083724
19.805	0.1076791
19.81	0.1067089
19.815	0.1057636
19.82	0.1049181
19.825	0.1042967
19.83	0.1036379
19.835	0.1031056
19.84	0.1025405
19.845	0.1019917
19.85	0.1016166
19.855	0.1009975
19.86	0.1003749
19.865	0.09970132
19.87	0.09902594
19.875	0.0983264
19.88	0.09765852
19.885	0.09679716
19.89	0.09592065
19.895	0.09506366
19.9	0.09422209
19.905	0.09335244
19.91	0.09250171
19.915	0.09167416
19.92	0.09073324
19.925	0.08982678
19.93	0.0889024
19.935	0.08789805
19.94	0.08693544
19.945	0.08594344
19.95	0.08500616
19.955	0.08412843
19.96	0.08357185
19.965	0.08314683
19.97	0.08279285
19.975	0.08243987
19.98	0.08203831
19.985	0.08166124
19.99	0.08128824
19.995	0.08065616
20	0.0800194
20.005	0.07959449
20.01	0.07919627
20.015	0.0789868
20.02	0.0787731
20.025	0.07857813
20.03	0.07839297
20.035	0.07826423
20.04	0.07791427
20.045	0.07753609
20.05	0.07700663
20.055	0.07645838
20.06	0.07610639
20.065	0.07576894
20.07	0.07546507
20.075	0.07516907
20.08	0.07496938
20.085	0.07477251
20.09	0.07466762
20.095	0.07460128
20.1	0.07458516
20.105	0.07461801
20.11	0.07467087
20.115	0.07480665
20.12	0.07492882
20.125	0.07509505
20.13	0.07516927
20.135	0.07524506
20.14	0.07534589
20.145	0.07532965
20.15	0.07535835
20.155	0.0752851
20.16	0.07523583
20.165	0.07523382
20.17	0.07516625
20.175	0.07509581
20.18	0.07508915
20.185	0.07516437
20.19	0.0751338
20.195	0.0751023
20.2	0.07521562
20.205	0.07538022
20.21	0.07563253
20.215	0.07596851
20.22	0.07629618
20.225	0.07665335
20.23	0.07699706
20.235	0.07733882
20.24	0.07761055
20.245	0.07797491
20.25	0.07839605
20.255	0.078898
20.26	0.07939725
20.265	0.07990559
20.27	0.0803801
20.275	0.0808757
20.28	0.0814034
20.285	0.08180886
20.29	0.08219959
20.295	0.08263173
20.3	0.08301784
20.305	0.08326732
20.31	0.08341427
20.315	0.08349237
20.32	0.08343831
20.325	0.08339417
20.33	0.08339566
20.335	0.0834398
20.34	0.08349665
20.345	0.08360778	#1 b1 2 
20.35	0.0838198
20.355	0.08396964
20.36	0.08413415
20.365	0.08425914
20.37	0.08422681
20.375	0.08421532
20.38	0.08418204
20.385	0.08402824
20.39	0.08379888
20.395	0.08357489
20.4	0.0833727
20.405	0.08316741
20.41	0.08289274
20.415	0.08259378
20.42	0.08211198
20.425	0.08165435
20.43	0.08113119
20.435	0.0806194
20.44	0.08010074
20.445	0.07960737
20.45	0.07911145
20.455	0.07866706
20.46	0.07820824
20.465	0.07771621
20.47	0.07726543
20.475	0.07684653
20.48	0.0763776
20.485	0.0758005
20.49	0.07523683
20.495	0.07467751
20.5	0.07406162
20.505	0.0734387
20.51	0.07289603
20.515	0.07252934
20.52	0.07221547
20.525	0.07209895
20.53	0.07197575
20.535	0.07178453
20.54	0.07158438
20.545	0.07136766
20.55	0.07126586
20.555	0.07112446
20.56	0.0711148
20.565	0.07119607
20.57	0.07130461
20.575	0.07150562
20.58	0.07183047
20.585	0.07217962
20.59	0.07257589
20.595	0.07299292
20.6	0.07361638
20.605	0.07417734
20.61	0.07481145
20.615	0.07547545
20.62	0.07614229
20.625	0.07690595
20.63	0.07763658
20.635	0.07839508
20.64	0.07913297
20.645	0.07985064
20.65	0.08057489
20.655	0.08134506
20.66	0.08193223
20.665	0.08253025
20.67	0.08314865
20.675	0.08365689
20.68	0.08415481
20.685	0.08466323
20.69	0.08525197
20.695	0.08584786
20.7	0.0864872
20.705	0.08717967
20.71	0.08794237
20.715	0.08869837
20.72	0.08925946
20.725	0.08983329
20.73	0.09019166
20.735	0.09056234
20.74	0.09096478
20.745	0.0913652
20.75	0.09177811
20.755	0.09188993
20.76	0.09192025
20.765	0.09182069
20.77	0.09161733
20.775	0.09143928
20.78	0.0912691
20.785	0.09099823
20.79	0.09073108
20.795	0.09048406
20.8	0.09024927
20.805	0.08973893
20.81	0.0892496
20.815	0.08862569
20.82	0.08799526
20.825	0.08737292
20.83	0.0867522
20.835	0.08612582
20.84	0.08550909
20.845	0.08489216
20.85	0.08427748
20.855	0.08363704
20.86	0.08290135
20.865	0.08224651
20.87	0.08160528
20.875	0.08100383
20.88	0.08057346
20.885	0.08008978
20.89	0.07971035
20.895	0.07926566
20.9	0.07885264
20.905	0.07833616
20.91	0.07774555
20.915	0.07705211
20.92	0.07635589
20.925	0.07577988
20.93	0.07527505
20.935	0.07486745
20.94	0.07445839
20.945	0.0740306
20.95	0.07360191
20.955	0.0731742
20.96	0.07295445
20.965	0.07282754
20.97	0.0727481
20.975	0.07274928
20.98	0.07267367
20.985	0.07260072
20.99	0.07246998
20.995	0.07233011
21	0.07216151
21.005	0.07201052
21.01	0.0720403
21.015	0.07210053
21.02	0.07224207
21.025	0.07238491
21.03	0.07251011
21.035	0.07261949
21.04	0.0727314
21.045	0.07281483
21.05	0.07289595
21.055	0.07302907
21.06	0.07318152
21.065	0.07339174
21.07	0.07365451
21.075	0.07386887
21.08	0.073993
21.085	0.07386965
21.09	0.07379883
21.095	0.07349782
21.1	0.07319253
21.105	0.07284028
21.11	0.07253364
21.115	0.07225404
21.12	0.07196102
21.125	0.07166072
21.13	0.07136423
21.135	0.07090375
21.14	0.07047212
21.145	0.07000523
21.15	0.06954819
21.155	0.06916516
21.16	0.06874559
21.165	0.06838096
21.17	0.0679906
21.175	0.06763778
21.18	0.06725648
21.185	0.0669253
21.19	0.06658401
21.195	0.06627529
21.2	0.06595234
21.205	0.06566697
21.21	0.06533301
21.215	0.06497719
21.22	0.06456286
21.225	0.06412427
21.23	0.06371771
21.235	0.0633038
21.24	0.06295237
21.245	0.06263086
21.25	0.06234449
21.255	0.06211411
21.26	0.06180509
21.265	0.06146916
21.27	0.0611142
21.275	0.06065981
21.28	0.06022822
21.285	0.0598376
21.29	0.05958946
21.295	0.05931798
21.3	0.05919859
21.305	0.05921847
21.31	0.05939513
21.315	0.05964124
21.32	0.05993723
21.325	0.06030367
21.33	0.0607158
21.335	0.06104846
21.34	0.06147451
21.345	0.06189325
21.35	0.06234968
21.355	0.06280954
21.36	0.06310595
21.365	0.06345183
21.37	0.0636817
21.375	0.06392962
21.38	0.06417761
21.385	0.06445238
21.39	0.06470832
21.395	0.06496947
21.4	0.06526938
21.405	0.06558389
21.41	0.06586129
21.415	0.06615956
21.42	0.06646624
21.425	0.06679109
21.43	0.06713784
21.435	0.06750927
21.44	0.06790163
21.445	0.06823427
21.45	0.0685584
21.455	0.06883381
21.46	0.06901102
21.465	0.06918032
21.47	0.06939616
21.475	0.06979244
21.48	0.0705708
21.485	0.07143261
21.49	0.07236462
21.495	0.07353829
21.5	0.07470585
21.505	0.07637652
21.51	0.07791354
21.515	0.07926858
21.52	0.08054461
21.525	0.08172332
21.53	0.08285826
21.535	0.08395607
21.54	0.08510542
21.545	0.08619464
21.55	0.0872679
21.555	0.08833404
21.56	0.08939926
21.565	0.09050617
21.57	0.09164255
21.575	0.09286311
21.58	0.09419771
21.585	0.09552784
21.59	0.09681069
21.595	0.09808682
21.6	0.09934582
21.605	0.1007038
21.61	0.1021806
21.615	0.1036557
21.62	0.1052847
21.625	0.1069457
21.63	0.1086045
21.635	0.1102305
21.64	0.1117592
21.645	0.1132787
21.65	0.1148028
21.655	0.1167251
21.66	0.1186611
21.665	0.1207693
21.67	0.1228988
21.675	0.1250386
21.68	0.1272086
21.685	0.1289638
21.69	0.1306408
21.695	0.1322431
21.7	0.1343303
21.705	0.136669
21.71	0.1388331
21.715	0.1409447
21.72	0.143202
21.725	0.145465
21.73	0.1478673
21.735	0.1502568
21.74	0.1526412
21.745	0.1550515
21.75	0.1574769
21.755	0.1598993
21.76	0.1623502
21.765	0.1649708
21.77	0.1675563
21.775	0.1700359
21.78	0.1724149
21.785	0.1748035
21.79	0.1772947
21.795	0.1797861
21.8	0.1822717
21.805	0.184771
21.81	0.1871644
21.815	0.1894314
21.82	0.1916609
21.825	0.1936709
21.83	0.1956428
21.835	0.1975748
21.84	0.1996328
21.845	0.2016953
21.85	0.2041415
21.855	0.2065722
21.86	0.2085019
21.865	0.2103968
21.87	0.2120868
21.875	0.2137187
21.88	0.215269
21.885	0.2168902
21.89	0.2187371
21.895	0.2205506
21.9	0.2224385
21.905	0.2235886
21.91	0.2243826
21.915	0.2249922
21.92	0.2258561
21.925	0.2265437
21.93	0.2274386
21.935	0.2284544
21.94	0.2294704
21.945	0.2314231
21.95	0.2332475
21.955	0.2350631
21.96	0.2368391
21.965	0.2385383
21.97	0.2399817
21.975	0.2414133
21.98	0.2428506
21.985	0.244434
21.99	0.2461725
21.995	0.2481075
22	0.2503062
22.005	0.2524794
22.01	0.2546906
22.015	0.2568824
22.02	0.259036
22.025	0.261176
22.03	0.2633757
22.035	0.2657879
22.04	0.2682274
22.045	0.2706092
22.05	0.2732751
22.055	0.2752894
22.06	0.2775757
22.065	0.280011
22.07	0.2825045
22.075	0.2851655
22.08	0.2878259
22.085	0.2906125
22.09	0.2930027
22.095	0.2951932
22.1	0.2974889
22.105	0.2996362
22.11	0.3019272
22.115	0.3043379
22.12	0.3068066
22.125	0.3089186
22.13	0.3110974
22.135	0.3129343
22.14	0.3143887
22.145	0.3158477
22.15	0.3158602
22.155	0.3159503
22.16	0.3160419
22.165	0.3161506
22.17	0.3162585
22.175	0.316415
22.18	0.3165661
22.185	0.3167291
22.19	0.3167001
22.195	0.3161873
22.2	0.3150794
22.205	0.3134816
22.21	0.3118326
22.215	0.3100062
22.22	0.3081756
22.225	0.3064072
22.23	0.3046364
22.235	0.3029241
22.24	0.3008223
22.245	0.2987305
22.25	0.296476
22.255	0.2937042
22.26	0.2912474
22.265	0.2881486
22.27	0.2850734
22.275	0.2818151
22.28	0.2782644
22.285	0.2746445
22.29	0.2708413
22.295	0.2672468
22.3	0.2637846
22.305	0.2600336
22.31	0.2563059
22.315	0.2526366
22.32	0.248905
22.325	0.2449158
22.33	0.241256
22.335	0.2375324
22.34	0.2339819
22.345	0.2306501
22.35	0.2271751
22.355	0.2247733
22.36	0.2222466
22.365	0.2195935
22.37	0.2169677
22.375	0.2142991
22.38	0.2118037
22.385	0.2093985
22.39	0.2069478
22.395	0.2046067
22.4	0.2026999
22.405	0.2013303
22.41	0.200364
22.415	0.1994791
22.42	0.198958
22.425	0.1987672
22.43	0.1987967
22.435	0.1988705
22.44	0.1988096
22.445	0.1988914
22.45	0.1987415
22.455	0.198637
22.46	0.19873
22.465	0.1987295
22.47	0.1992325
22.475	0.199585
22.48	0.2000156
22.485	0.2007434
22.49	0.2015907
22.495	0.2023057
22.5	0.2031014
22.505	0.2036761
22.51	0.2044217
22.515	0.2052065
22.52	0.205977
22.525	0.2067341
22.53	0.2077191
22.535	0.2082619
22.54	0.2086983
22.545	0.2090321
22.55	0.2095369
22.555	0.210145
22.56	0.2106441
22.565	0.2111957
22.57	0.211772
22.575	0.2121404
22.58	0.2125206
22.585	0.2126187
22.59	0.2125233
22.595	0.2125074
22.6	0.2125566
22.605	0.2126876
22.61	0.2128411
22.615	0.2129528
22.62	0.2130104
22.625	0.2127136
22.63	0.2117778
22.635	0.210228
22.64	0.2085875
22.645	0.2069258
22.65	0.205418
22.655	0.2040138
22.66	0.202678
22.665	0.2014507
22.67	0.2002698
22.675	0.1990388
22.68	0.1979817
22.685	0.1970448
22.69	0.1958585
22.695	0.1944571
22.7	0.1931149
22.705	0.1916515
22.71	0.1902895
22.715	0.18888
22.72	0.1874118
22.725	0.1859613
22.73	0.1845669
22.735	0.1833219
22.74	0.1824541
22.745	0.1817213
22.75	0.1810884
22.755	0.1800756
22.76	0.1789967
22.765	0.1778524
22.77	0.1767201
22.775	0.1761739
22.78	0.1757773
22.785	0.1759999
22.79	0.1762506
22.795	0.1766859
22.8	0.1769965
22.805	0.1771355
22.81	0.1770605
22.815	0.176898
22.82	0.1767569
22.825	0.1766215
22.83	0.1765902
22.835	0.1769345
22.84	0.1776785
22.845	0.178435
22.85	0.1794292
22.855	0.1802809
22.86	0.1815567
22.865	0.1829273
22.87	0.1842908
22.875	0.1855933
22.88	0.1868943
22.885	0.1879624
22.89	0.1887986
22.895	0.1897435
22.9	0.1908542
22.905	0.1920867
22.91	0.1933467
22.915	0.1946886
22.92	0.1960547
22.925	0.1974078
22.93	0.1987878
22.935	0.2001258
22.94	0.2012377
22.945	0.2022375
22.95	0.2031553
22.955	0.2040693
22.96	0.2051591
22.965	0.2062439
22.97	0.2073725
22.975	0.2084696
22.98	0.2087024
22.985	0.209032
22.99	0.2083328
22.995	0.2078159
23	0.2071395
23.005	0.2065149
23.01	0.205991
23.015	0.2055807
23.02	0.2052076
23.025	0.2048453
23.03	0.2045031
23.035	0.2042397
23.04	0.2039916
23.045	0.2037715
23.05	0.2035446
23.055	0.2029501
23.06	0.2024487
23.065	0.2012347
23.07	0.1997981
23.075	0.1983462
23.08	0.1971233
23.085	0.1958906
23.09	0.1947843
23.095	0.1937935
23.1	0.1928187
23.105	0.1917098
23.11	0.1904709
23.115	0.1891362
23.12	0.1876254
23.125	0.1860762
23.13	0.1846904
23.135	0.1831515
23.14	0.1815076
23.145	0.1797906
23.15	0.1779963
23.155	0.1762339
23.16	0.1744911
23.165	0.1727402
23.17	0.1710826
23.175	0.1694157
23.18	0.1677632
23.185	0.166519
23.19	0.1650157
23.195	0.1641578
23.2	0.1630608
23.205	0.1620569
23.21	0.1609999
23.215	0.1598878
23.22	0.1587188
23.225	0.157578
23.23	0.156414
23.235	0.1553433
23.24	0.1542584
23.245	0.1531943
23.25	0.1521085
23.255	0.1510353
23.26	0.1501426
23.265	0.1491519
23.27	0.1486132
23.275	0.148249
23.28	0.1478886
23.285	0.1469506
23.29	0.14604
23.295	0.1450655
23.3	0.1440626
23.305	0.1430275
23.31	0.1420576
23.315	0.1411965
23.32	0.140448
23.325	0.1398179
23.33	0.139192
23.335	0.1380998
23.34	0.1371313
23.345	0.1362621
23.35	0.1355719
23.355	0.1348226
23.36	0.1340622
23.365	0.1331604
23.37	0.1322047
23.375	0.1309748
23.38	0.1297452
23.385	0.1284404
23.39	0.1272522
23.395	0.1262152
23.4	0.1253149
23.405	0.124619
23.41	0.1239827
23.415	0.123417
23.42	0.1231365
23.425	0.1228765
23.43	0.1225251
23.435	0.1223263
23.44	0.1218177
23.445	0.1213586
23.45	0.1208281
23.455	0.1202139
23.46	0.119627
23.465	0.1191123
23.47	0.1186615
23.475	0.1182118
23.48	0.1178952
23.485	0.1175816
23.49	0.1176374
23.495	0.1176988
23.5	0.1178269
23.505	0.1180433
23.51	0.1182744
23.515	0.1185586
23.52	0.1187346
23.525	0.11893
23.53	0.1190734
23.535	0.1192289
23.54	0.1196667
23.545	0.1200506
23.55	0.1207501
23.555	0.1216368
23.56	0.1232143
23.565	0.1247354
23.57	0.1264118
23.575	0.1284118
23.58	0.1305641
23.585	0.1327597
23.59	0.1349558
23.595	0.137108
23.6	0.1392321
23.605	0.1410811
23.61	0.1427971
23.615	0.1443986
23.62	0.1458439
23.625	0.1468489
23.63	0.1479104
23.635	0.1491115
23.64	0.1501188
23.645	0.151472
23.65	0.152691
23.655	0.153932
23.66	0.1552401
23.665	0.1565243
23.67	0.1578082
23.675	0.1590748
23.68	0.1603308
23.685	0.1613494
23.69	0.1623574
23.695	0.1633611
23.7	0.1642893
23.705	0.1651627
23.71	0.1661206
23.715	0.1670738
23.72	0.168024
23.725	0.1690142
23.73	0.1699405
23.735	0.171006
23.74	0.1721065
23.745	0.173404
23.75	0.1747106
23.755	0.1755378
23.76	0.1760595
23.765	0.1757757
23.77	0.1756251
23.775	0.1753937
23.78	0.1747735
23.785	0.1741276
23.79	0.1733807
23.795	0.172807
23.8	0.1721847
23.805	0.1717482
23.81	0.171406
23.815	0.1711777
23.82	0.171137
23.825	0.1712337
23.83	0.1716038
23.835	0.1718792
23.84	0.1719865
23.845	0.1722161
23.85	0.172072
23.855	0.172129
23.86	0.1721766
23.865	0.1722004
23.87	0.1722076
23.875	0.1722164
23.88	0.1722311
23.885	0.1722787
23.89	0.1724621
23.895	0.1726669
23.9	0.1728576
23.905	0.1731924
23.91	0.1735844
23.915	0.1737494
23.92	0.1740151
23.925	0.1742068
23.93	0.1744148
23.935	0.1746438
23.94	0.1746414
23.945	0.1745555
23.95	0.1741503
23.955	0.1737882
23.96	0.1737523
23.965	0.173865
23.97	0.1743923
23.975	0.1747233
23.98	0.1750232
23.985	0.1753914
23.99	0.175734
23.995	0.1761026
24	0.176158
24.005	0.1762993
24.01	0.1760681
24.015	0.1758355
24.02	0.1754846
24.025	0.1751967
24.03	0.1748602
24.035	0.1746304
24.04	0.1744433
24.045	0.1743099
24.05	0.1739923
24.055	0.1738496
24.06	0.1734205
24.065	0.1730354
24.07	0.1726081
24.075	0.1721913
24.08	0.171758
24.085	0.171319
24.09	0.1709088
24.095	0.1704461
24.1	0.1699444
24.105	0.1694612
24.11	0.1688085
24.115	0.1681238
24.12	0.1674306
24.125	0.1665243
24.13	0.1656441
24.135	0.1647646
24.14	0.1638877
24.145	0.1631209
24.15	0.1623924
24.155	0.161734
24.16	0.161013
24.165	0.1601181
24.17	0.1592728
24.175	0.158421
24.18	0.1576548
24.185	0.1568767
24.19	0.1561906
24.195	0.1555144
24.2	0.1549354
24.205	0.1544749
24.21	0.1539191
24.215	0.1535756
24.22	0.1532318
24.225	0.1529361
24.23	0.1519867
24.235	0.1509633
24.24	0.1493348
24.245	0.1477062
24.25	0.1462387
24.255	0.1449046
24.26	0.1436608
24.265	0.1425683
24.27	0.1413702
24.275	0.1401782
24.28	0.1389922
24.285	0.1378061
24.29	0.1366286
24.295	0.1352802
24.3	0.1339514
24.305	0.1326152
24.31	0.1312794
24.315	0.1299942
24.32	0.1286601
24.325	0.1275009
24.33	0.1264698
24.335	0.1254566
24.34	0.1243584
24.345	0.1232546
24.35	0.12215
24.355	0.1210251
24.36	0.1198956
24.365	0.1187208
24.37	0.1176372
24.375	0.1164328
24.38	0.1152838
24.385	0.114096
24.39	0.113011
24.395	0.1119189
24.4	0.1108151
24.405	0.1095081
24.41	0.1082515
24.415	0.1070147
24.42	0.1057581
24.425	0.1045242
24.43	0.1032804
24.435	0.1026432
24.44	0.102095
24.445	0.1020787
24.45	0.1020659
24.455	0.1016272
24.46	0.10118
24.465	0.1005099
24.47	0.0998712
24.475	0.09940335
24.48	0.09896455
24.485	0.09845777
24.49	0.0979645
24.495	0.09744122
24.5	0.09703061
24.505	0.09663936
24.51	0.09626605
24.515	0.09582624
24.52	0.09537909
24.525	0.09495379
24.53	0.0944217
24.535	0.09392091
24.54	0.09342183
24.545	0.09297809
24.55	0.09253395
24.555	0.09209861
24.56	0.09167902
24.565	0.09133524
24.57	0.09105483
24.575	0.09081754
24.58	0.09062959
24.585	0.09026813
24.59	0.08991847
24.595	0.08947087
24.6	0.089014
24.605	0.08856986
24.61	0.08811671
24.615	0.08763295
24.62	0.08712427
24.625	0.08667725
24.63	0.08615792
24.635	0.08565456
24.64	0.08514126
24.645	0.08465238
24.65	0.08419905
24.655	0.08368964
24.66	0.08345571
24.665	0.08320974
24.67	0.08300624
24.675	0.08284831
24.68	0.08244131
24.685	0.0821858
24.69	0.0819813
24.695	0.08175374
24.7	0.08148461
24.705	0.08122503
24.71	0.08107514
24.715	0.0809991
24.72	0.08109598
24.725	0.08127005
24.73	0.08178526
24.735	0.0823188
24.74	0.08295703
24.745	0.0836858
24.75	0.08444871
24.755	0.0853229
24.76	0.08630343
24.765	0.08731709
24.77	0.08837926
24.775	0.08942853
24.78	0.09040423
24.785	0.09140201
24.79	0.09248977
24.795	0.09358488
24.8	0.09469799
24.805	0.09579629
24.81	0.09688445
24.815	0.09803603
24.82	0.09918736
24.825	0.100366
24.83	0.1014659
24.835	0.1025722
24.84	0.1036867
24.845	0.1048253
24.85	0.1059248
24.855	0.1069652
24.86	0.1080082
24.865	0.1089772
24.87	0.1099323
24.875	0.1109078
24.88	0.1118278
24.885	0.1128282
24.89	0.1136171
24.895	0.114429
24.9	0.1152271
24.905	0.1160476
24.91	0.1168561
24.915	0.1174504
24.92	0.1179431
24.925	0.1182284
24.93	0.1184719
24.935	0.1182602
24.94	0.1180184
24.945	0.1176499
24.95	0.117106
24.955	0.1165553
24.96	0.1158193
24.965	0.1149533
24.97	0.114011
24.975	0.1129759
24.98	0.1119333
24.985	0.1110528
24.99	0.1101432
24.995	0.1092184
25	0.1082869
25.005	0.1073565
25.01	0.106422
25.015	0.1055091
25.02	0.1046028
25.025	0.1036949
25.03	0.1027701
25.035	0.1018207
25.04	0.1008664
25.045	0.09986875
25.05	0.09881404
25.055	0.097749
25.06	0.09667705
25.065	0.09558268
25.07	0.09451419
25.075	0.0935346
25.08	0.09256658
25.085	0.09155063
25.09	0.09052556
25.095	0.08959705
25.1	0.08864041
25.105	0.0877835
25.11	0.08693156
25.115	0.086086
25.12	0.08539459
25.125	0.08477549
25.13	0.08430902
25.135	0.08385586
25.14	0.08372439
25.145	0.08363798
25.15	0.08342793
25.155	0.08335395
25.16	0.08318086
25.165	0.08314657
25.17	0.08303944
25.175	0.08307958
25.18	0.08320349
25.185	0.08338856
25.19	0.08321129
25.195	0.08301879
25.2	0.08283481
25.205	0.08265182
25.21	0.08253597
25.215	0.08241837
25.22	0.08231318
25.225	0.08218498
25.23	0.08204669
25.235	0.08190511
25.24	0.08179968
25.245	0.08170346
25.25	0.08160374
25.255	0.08149997
25.26	0.08140664
25.265	0.08137649
25.27	0.08135661
25.275	0.08143138
25.28	0.08132861
25.285	0.08125603
25.29	0.08120794
25.295	0.0811777
25.3	0.08116286
25.305	0.08108732
25.31	0.0808075
25.315	0.08051307
25.32	0.08020543
25.325	0.0799702
25.33	0.07971099
25.335	0.07945592
25.34	0.07921776
25.345	0.07897938
25.35	0.07874568
25.355	0.07868388
25.36	0.07861858
25.365	0.07877262
25.37	0.07891546
25.375	0.07929248
25.38	0.07949299
25.385	0.07963875
25.39	0.07968027
25.395	0.07989102
25.4	0.08012226
25.405	0.08029649
25.41	0.08048203
25.415	0.08054153
25.42	0.08060885
25.425	0.08056585
25.43	0.08053477
25.435	0.08051788
25.44	0.08054529
25.445	0.0805735
25.45	0.08061974
25.455	0.08072291
25.46	0.08084785
25.465	0.08096931
25.47	0.0809979
25.475	0.08104026
25.48	0.08091169
25.485	0.08083599
25.49	0.08068321
25.495	0.08055257
25.5	0.08038404
25.505	0.0802064
25.51	0.08005698
25.515	0.08008417
25.52	0.08010862
25.525	0.08016637
25.53	0.08008088
25.535	0.08000324
25.54	0.07992623
25.545	0.07981388
25.55	0.07980321
25.555	0.07985736
25.56	0.07995266
25.565	0.0800731
25.57	0.08005543
25.575	0.08005537
25.58	0.07981947
25.585	0.07961411
25.59	0.07945632
25.595	0.07930794
25.6	0.07914451
25.605	0.07898876
25.61	0.07890815
25.615	0.078809
25.62	0.07878331
25.625	0.07874396
25.63	0.07874537
25.635	0.07876599
25.64	0.07875712
25.645	0.07872089
25.65	0.07874104
25.655	0.07870919
25.66	0.07858321
25.665	0.07846039
25.67	0.07836335
25.675	0.07831361
25.68	0.07827556
25.685	0.07832633
25.69	0.07840693
25.695	0.07854198
25.7	0.07867908
25.705	0.07882133
25.71	0.07900414
25.715	0.07920527
25.72	0.07936617
25.725	0.07960219
25.73	0.07978576
25.735	0.08012165
25.74	0.08047127
25.745	0.08079869
25.75	0.08122934
25.755	0.08147905
25.76	0.08165631
25.765	0.08173957
25.77	0.08178211
25.775	0.08173152
25.78	0.08164348
25.785	0.08168174
25.79	0.08176263
25.795	0.08184254
25.8	0.08195586
25.805	0.08208136
25.81	0.08220501
25.815	0.08227064
25.82	0.08234863
25.825	0.0823974
25.83	0.08245264
25.835	0.08250638
25.84	0.08252473
25.845	0.08256921
25.85	0.08255534
25.855	0.08246263
25.86	0.08239202
25.865	0.08237619
25.87	0.08234313
25.875	0.08224283
25.88	0.08217439
25.885	0.0820803
25.89	0.08198002
25.895	0.08190636
25.9	0.0818103
25.905	0.08171611
25.91	0.08163392
25.915	0.08149259
25.92	0.08134609
25.925	0.08106794
25.93	0.08064402
25.935	0.08024264
25.94	0.07964858
25.945	0.07902727
25.95	0.07842291
25.955	0.07765013
25.96	0.07697996
25.965	0.07625543
25.97	0.07557852
25.975	0.07490895
25.98	0.07426917
25.985	0.0736461
25.99	0.07299425
25.995	0.07235509
26	0.07164235
26.005	0.07093808
26.01	0.07023665
26.015	0.06960718
26.02	0.0690176
26.025	0.06841083
26.03	0.06779867
26.035	0.06720692
26.04	0.06664026
26.045	0.06613589
26.05	0.06564231
26.055	0.0652208
26.06	0.06480745
26.065	0.06450812
26.07	0.06419977
26.075	0.06388433
26.08	0.06361781
26.085	0.06330764
26.09	0.06301254
26.095	0.06273801
26.1	0.0623944
26.105	0.06208333
26.11	0.06179007
26.115	0.06150487
26.12	0.06124442
26.125	0.06096891
26.13	0.06081157
26.135	0.0607534
26.14	0.06069596
26.145	0.0607828
26.15	0.06094024
26.155	0.06107993
26.16	0.06134448
26.165	0.06156023
26.17	0.06184764
26.175	0.06219465
26.18	0.06260129
26.185	0.06307613
26.19	0.06354971
26.195	0.06406877
26.2	0.06451517
26.205	0.06502994
26.21	0.06551791
26.215	0.06601936
26.22	0.06632633
26.225	0.06660266
26.23	0.06689879
26.235	0.06720916
26.24	0.0674683
26.245	0.0677252
26.25	0.06790008
26.255	0.06800286
26.26	0.06806421
26.265	0.068139
26.27	0.06803001
26.275	0.0679398
26.28	0.0678631
26.285	0.06784076
26.29	0.06781166
26.295	0.06779552
26.3	0.06774889
26.305	0.06771609
26.31	0.06764991
26.315	0.06752741
26.32	0.06738811
26.325	0.06725753
26.33	0.0671859
26.335	0.06716612
26.34	0.06717847
26.345	0.06729769
26.35	0.0674047
26.355	0.06754182
26.36	0.06772114
26.365	0.06785007
26.37	0.06798009
26.375	0.06810702
26.38	0.06810474
26.385	0.06800208
26.39	0.06795176
26.395	0.06791094
26.4	0.06790897
26.405	0.06794548
26.41	0.06794165
26.415	0.06791238
26.42	0.06788323
26.425	0.06795449
26.43	0.06802334
26.435	0.06807434
26.44	0.06814647
26.445	0.0682587
26.45	0.06836044
26.455	0.06850569
26.46	0.06869401
26.465	0.06892302
26.47	0.06915495
26.475	0.06942771
26.48	0.06969625
26.485	0.07003124
26.49	0.07034659
26.495	0.07064182
26.5	0.07094027
26.505	0.07125745
26.51	0.07157278
26.515	0.07192974
26.52	0.07232001
26.525	0.07277548
26.53	0.07324505
26.535	0.07367314
26.54	0.07408837
26.545	0.07445132
26.55	0.07462218
26.555	0.07482287
26.56	0.0748653
26.565	0.07484513
26.57	0.07484942
26.575	0.07486797
26.58	0.07488524
26.585	0.07495461
26.59	0.07508865
26.595	0.07513371
26.6	0.07517093
26.605	0.07510235
26.61	0.07515549
26.615	0.07523804
26.62	0.07541038
26.625	0.07552917
26.63	0.07564673
26.635	0.07577529
26.64	0.07588526
26.645	0.07596233
26.65	0.07600573
26.655	0.07606766
26.66	0.0761373
26.665	0.07621054
26.67	0.07625882
26.675	0.07631006
26.68	0.07639507
26.685	0.07642128
26.69	0.07635185
26.695	0.07618414
26.7	0.07604239
26.705	0.07583116
26.71	0.07560755
26.715	0.07539776
26.72	0.07515152
26.725	0.07490118
26.73	0.07453549
26.735	0.07414047
26.74	0.07369272
26.745	0.07314598
26.75	0.07261571
26.755	0.07218309
26.76	0.07169699
26.765	0.07125964
26.77	0.07088176
26.775	0.07050062
26.78	0.0701176
26.785	0.06976737
26.79	0.06942665
26.795	0.06904354
26.8	0.06872629
26.805	0.06839602
26.81	0.0680557
26.815	0.0674351
26.82	0.06678372
26.825	0.06596577
26.83	0.06517579
26.835	0.06439688
26.84	0.06360895
26.845	0.06287757
26.85	0.06216155
26.855	0.06147996
26.86	0.06074507
26.865	0.05997013
26.87	0.05930907
26.875	0.05867767
26.88	0.05806547
26.885	0.05744807
26.89	0.05691418
26.895	0.05639986
26.9	0.05597798
26.905	0.05554849
26.91	0.05518823
26.915	0.05483521
26.92	0.05446758
26.925	0.05407534
26.93	0.05369289
26.935	0.05356665
26.94	0.05345088
26.945	0.05342421
26.95	0.05349041
26.955	0.05355297
26.96	0.05363218
26.965	0.05373249
26.97	0.05388808
26.975	0.05397205
26.98	0.05409271
26.985	0.05421796
26.99	0.05426138
26.995	0.05433046
27	0.0544699
27.005	0.05454795
27.01	0.05464648
27.015	0.05482133
27.02	0.05517486
27.025	0.05555866
27.03	0.05604422
27.035	0.05652878
27.04	0.05697563
27.045	0.05747098
27.05	0.05787284
27.055	0.05825579
27.06	0.05859375
27.065	0.05894992
27.07	0.05929655
27.075	0.0593848
27.08	0.0594521
27.085	0.0594882
27.09	0.05952601
27.095	0.05950681
27.1	0.05951082
27.105	0.05954971
27.11	0.05959233
27.115	0.05967872
27.12	0.05977014
27.125	0.05986677
27.13	0.060063
27.135	0.06026914
27.14	0.06015247
27.145	0.0600392
27.15	0.05989991
27.155	0.0597635
27.16	0.05962908
27.165	0.05944959
27.17	0.05928757
27.175	0.05913006
27.18	0.0589989
27.185	0.05886272
27.19	0.05875934
27.195	0.05870148
27.2	0.05860707
27.205	0.05843096
27.21	0.05830709
27.215	0.05816914
27.22	0.05801303
27.225	0.0578747
27.23	0.05770493
27.235	0.05751722
27.24	0.05733094
27.245	0.05716796
27.25	0.05690585
27.255	0.05667627
27.26	0.05651324
27.265	0.05643826
27.27	0.05637866
27.275	0.05635053
27.28	0.05646051
27.285	0.05652092
27.29	0.05657361
27.295	0.0566079
27.3	0.05666574
27.305	0.05671612
27.31	0.05668073
27.315	0.05665828
27.32	0.05653304
27.325	0.05642519
27.33	0.05632666
27.335	0.05607713
27.34	0.05576114
27.345	0.0556193
27.35	0.05548491
27.355	0.05539101
27.36	0.05537866
27.365	0.05542336
27.37	0.0555881
27.375	0.05575576
27.38	0.05589679
27.385	0.05603193
27.39	0.05610655
27.395	0.05610773
27.4	0.05609602
27.405	0.05608345
27.41	0.05611866
27.415	0.05611584
27.42	0.05621364
27.425	0.05646115
27.43	0.05676061
27.435	0.05714083
27.44	0.05753293
27.445	0.05792136
27.45	0.05827104
27.455	0.0586802
27.46	0.05914268
27.465	0.05950485
27.47	0.05974231
27.475	0.05997526
27.48	0.06022193
27.485	0.06046803
27.49	0.06076474
27.495	0.06107065
27.5	0.06138284
27.505	0.06169737
27.51	0.06203743
27.515	0.06242807
27.52	0.06280788
27.525	0.06323329
27.53	0.06361374
27.535	0.06397464
27.54	0.06440689
27.545	0.06487298
27.55	0.06535564
27.555	0.06582203
27.56	0.06620876
27.565	0.06645545
27.57	0.06663025
27.575	0.06666336
27.58	0.06670403
27.585	0.06676289
27.59	0.06683841
27.595	0.06691356
27.6	0.06703292
27.605	0.06714978
27.61	0.06727799
27.615	0.06740182
27.62	0.0675351
27.625	0.06752203
27.63	0.0672906
27.635	0.06695044
27.64	0.06652311
27.645	0.0660868
27.65	0.06567763
27.655	0.06532788
27.66	0.06497779
27.665	0.06459781
27.67	0.06424462
27.675	0.06396222
27.68	0.06367704
27.685	0.06334045
27.69	0.06304104
27.695	0.06271846
27.7	0.06244781
27.705	0.06217695
27.71	0.06190571
27.715	0.06159335
27.72	0.06125835
27.725	0.06089623
27.73	0.060604
27.735	0.06035664
27.74	0.06012187
27.745	0.0598758
27.75	0.05962238
27.755	0.05934034
27.76	0.05906118
27.765	0.0588302
27.77	0.058712
27.775	0.05860208
27.78	0.05854683
27.785	0.05845522
27.79	0.05836518
27.795	0.05833244
27.8	0.05833031
27.805	0.05833344
27.81	0.05836066
27.815	0.05839864
27.82	0.05842973
27.825	0.05847012
27.83	0.05857833
27.835	0.05880061
27.84	0.05903587
27.845	0.05930663
27.85	0.05966203
27.855	0.05995275
27.86	0.06019519
27.865	0.06039215
27.87	0.06051752
27.875	0.06068322
27.88	0.06081401
27.885	0.06097382
27.89	0.06119452
27.895	0.06136757
27.9	0.06156422
27.905	0.06166623
27.91	0.06176981
27.915	0.06187302
27.92	0.06207749
27.925	0.06229179
27.93	0.06255305
27.935	0.06270078
27.94	0.06280048
27.945	0.06290787
27.95	0.06301651
27.955	0.06313577
27.96	0.06324583
27.965	0.0633557
27.97	0.06348876
27.975	0.0635716
27.98	0.06367364
27.985	0.06383628
27.99	0.06409104
27.995	0.06432922
28	0.06448043
28.005	0.06465149
28.01	0.0647647
28.015	0.06485188
28.02	0.06491662
28.025	0.06497971
28.03	0.06503156
28.035	0.06509521
28.04	0.06515318
28.045	0.06523862
28.05	0.06527943
28.055	0.06516559
28.06	0.06508235
28.065	0.06497052
28.07	0.06487902
28.075	0.06486674
28.08	0.06486201
28.085	0.06488507
28.09	0.06487512
28.095	0.06481277
28.1	0.06471565
28.105	0.06463392
28.11	0.06458969
28.115	0.06455064
28.12	0.06452421
28.125	0.06434973
28.13	0.06417367
28.135	0.06404064
28.14	0.06394313
28.145	0.06394451
28.15	0.06396201
28.155	0.06398322
28.16	0.06399256
28.165	0.06405809
28.17	0.06414543
28.175	0.06419666
28.18	0.06428242
28.185	0.06437326
28.19	0.06442745
28.195	0.06430197
28.2	0.06419542
28.205	0.06406671
28.21	0.06395038
28.215	0.06393495
28.22	0.06392485
28.225	0.0640038
28.23	0.06409287
28.235	0.06425453
28.24	0.06441455
28.245	0.06459818
28.25	0.0647847
28.255	0.06510812
28.26	0.06555772
28.265	0.06602064
28.27	0.06651224
28.275	0.06703369
28.28	0.06749756
28.285	0.06786681
28.29	0.06821512
28.295	0.06853199
28.3	0.06885914
28.305	0.06922145
28.31	0.06952326
28.315	0.06984264
28.32	0.07015198
28.325	0.07044084
28.33	0.07082229
28.335	0.07121398
28.34	0.07146262
28.345	0.07171431
28.35	0.0718396
28.355	0.07192069
28.36	0.07199579
28.365	0.07207521
28.37	0.07210633
28.375	0.07212328
28.38	0.07215295
28.385	0.07212932
28.39	0.072095
28.395	0.07201701
28.4	0.0720668
28.405	0.07216556
28.41	0.07234506
28.415	0.07245282
28.42	0.07246918
28.425	0.07254525
28.43	0.07249691
28.435	0.07252108
28.44	0.0725002
28.445	0.07252284
28.45	0.07251037
28.455	0.07249546
28.46	0.07233619
28.465	0.07214673
28.47	0.07192781
28.475	0.07171894
28.48	0.07145714
28.485	0.07125149
28.49	0.07110093
28.495	0.07096891
28.5	0.07086953
28.505	0.07083233
28.51	0.07080964
28.515	0.07081596
28.52	0.07078682
28.525	0.0707606
28.53	0.07073811
28.535	0.07064595
28.54	0.07053054
28.545	0.07048396
28.55	0.070436
28.555	0.0704765
28.56	0.07052285
28.565	0.07057186
28.57	0.07063725
28.575	0.07069205
28.58	0.07071296
28.585	0.07074289
28.59	0.07081235
28.595	0.07089589
28.6	0.07103875
28.605	0.07111144
28.61	0.0710463
28.615	0.07091696
28.62	0.07082813
28.625	0.07075695
28.63	0.07057286
28.635	0.07043874
28.64	0.07014495
28.645	0.06976412
28.65	0.06929028
28.655	0.06883546
28.66	0.06840588
28.665	0.06799799
28.67	0.06753603
28.675	0.06706566
28.68	0.06656298
28.685	0.06608607
28.69	0.06557027
28.695	0.06511412
28.7	0.06464817
28.705	0.06418039
28.71	0.06359921
28.715	0.06299862
28.72	0.06239695
28.725	0.0618166
28.73	0.06123103
28.735	0.06067186
28.74	0.06015375
28.745	0.0596759
28.75	0.05920635
28.755	0.05882709
28.76	0.05847818
28.765	0.0581376
28.77	0.05785486
28.775	0.05757788
28.78	0.05733386
28.785	0.05719859
28.79	0.05703208
28.795	0.05685411
28.8	0.05665823
28.805	0.05639438
28.81	0.05624796
28.815	0.05619963
28.82	0.05618657
28.825	0.05617988
28.83	0.05620533
28.835	0.05629717
28.84	0.05639417
28.845	0.05659052
28.85	0.05687381
28.855	0.0572149
28.86	0.05755549
28.865	0.05784803
28.87	0.05819006
28.875	0.05868542
28.88	0.05920003
28.885	0.05985958
28.89	0.0605301
28.895	0.06118666
28.9	0.06171826
28.905	0.06223638
28.91	0.06274388
28.915	0.06328838
28.92	0.06380773
28.925	0.0643257
28.93	0.0648344
28.935	0.06535107
28.94	0.06590865
28.945	0.06647715
28.95	0.0669879
28.955	0.0674953
28.96	0.06782612
28.965	0.06801108
28.97	0.0682012
28.975	0.06830891
28.98	0.0683572
28.985	0.06838942
28.99	0.06830152
28.995	0.06823178
29	0.06817072
29.005	0.06812502
29.01	0.06811063
29.015	0.06796309
29.02	0.06782096
29.025	0.06770938
29.03	0.06758843
29.035	0.06745393
29.04	0.06732309
29.045	0.06722007
29.05	0.06712384
29.055	0.06707194
29.06	0.06701058
29.065	0.06694725
29.07	0.06689132
29.075	0.06682387
29.08	0.06654471
29.085	0.06631164
29.09	0.06584461
29.095	0.0654071
29.1	0.06495577
29.105	0.06455416
29.11	0.06419771
29.115	0.06399888
29.12	0.06387049
29.125	0.06376099
29.13	0.06371634
29.135	0.06368453
29.14	0.06363139
29.145	0.06342601
29.15	0.06323434
29.155	0.06320709
29.16	0.06318706
29.165	0.06338413
29.17	0.0637107
29.175	0.06405055
29.18	0.06446369
29.185	0.06492082
29.19	0.0653839
29.195	0.06590182
29.2	0.06641309
29.205	0.06691985
29.21	0.06741695
29.215	0.06792185
29.22	0.06849271
29.225	0.06904791
29.23	0.06950444
29.235	0.06996579
29.24	0.07043351
29.245	0.07090634
29.25	0.07134394
29.255	0.07176745
29.26	0.07210449
29.265	0.07244769
29.27	0.0727863
29.275	0.07312925
29.28	0.07347166
29.285	0.07391278
29.29	0.07425738
29.295	0.07470396
29.3	0.0750439
29.305	0.07538764
29.31	0.0757164
29.315	0.07595012
29.32	0.07592381
29.325	0.07578987
29.33	0.07565432
29.335	0.0754041
29.34	0.0751308
29.345	0.07486328
29.35	0.07467024
29.355	0.07440943
29.36	0.07391054
29.365	0.07339486
29.37	0.0726754
29.375	0.07189092
29.38	0.07108291
29.385	0.07020423
29.39	0.06932606
29.395	0.06843965
29.4	0.06754596
29.405	0.06664156
29.41	0.06572006
29.415	0.06476617
29.42	0.06377687
29.425	0.06277013
29.43	0.06176488
29.435	0.06083697
29.44	0.0599064
29.445	0.05895061
29.45	0.05795929
29.455	0.05695706
29.46	0.05598637
29.465	0.05507172
29.47	0.05414309
29.475	0.05321431
29.48	0.05234472
29.485	0.05151579
29.49	0.05065449
29.495	0.04986076
29.5	0.04904307
29.505	0.04837933
29.51	0.0477267
29.515	0.0471201
29.52	0.04663978
29.525	0.04636326
29.53	0.04618452
29.535	0.04604499
29.54	0.04599659
29.545	0.04605678
29.55	0.04612516
29.555	0.04615918
29.56	0.04627004
29.565	0.04662362
29.57	0.04697992
29.575	0.04748632
29.58	0.04799937
29.585	0.04851632
29.59	0.04903853
29.595	0.0494952
29.6	0.05007113
29.605	0.05073039
29.61	0.05138024
29.615	0.05202641
29.62	0.05269998
29.625	0.05339974
29.63	0.05411701
29.635	0.05494808
29.64	0.05572007
29.645	0.05647644
29.65	0.05731301
29.655	0.05814761
29.66	0.05898667
29.665	0.059736
29.67	0.06044924
29.675	0.06113782
29.68	0.06179734
29.685	0.0623392
29.69	0.06278678
29.695	0.06334653
29.7	0.06388254
29.705	0.06445558
29.71	0.06492776
29.715	0.06541021
29.72	0.06582812
29.725	0.06622682
29.73	0.06663933
29.735	0.06704221
29.74	0.06741921
29.745	0.06789248
29.75	0.06824276
29.755	0.06866936
29.76	0.06909571
29.765	0.06956875
29.77	0.0699692
29.775	0.07037244
29.78	0.07090386
29.785	0.0714681
29.79	0.07207944
29.795	0.07268937
29.8	0.07331378
29.805	0.07376885
29.81	0.07409988
29.815	0.07443006
29.82	0.07475715
29.825	0.075081
29.83	0.0754107
29.835	0.07570998
29.84	0.07580004
29.845	0.0758982
29.85	0.07601223
29.855	0.0760011
29.86	0.07603448
29.865	0.07605591
29.87	0.07612204
29.875	0.0761956
29.88	0.0762818
29.885	0.07638302
29.89	0.07651226
29.895	0.07670969
29.9	0.07674651
29.905	0.07683851
29.91	0.07689513
29.915	0.07697865
29.92	0.07708644
29.925	0.07725411
29.93	0.07737102
29.935	0.07747906
29.94	0.07764521
29.945	0.07792252
29.95	0.07804287
29.955	0.07823557
29.96	0.0783055
29.965	0.0783881
29.97	0.07836352
29.975	0.07837135
29.98	0.078376
29.985	0.07814559
29.99	0.07787805
29.995	0.07748925
30	0.07710956
30.005	0.07673074
30.01	0.0764175
30.015	0.07619122
30.02	0.07598889
30.025	0.07578883
30.03	0.07555768
30.035	0.07527308
30.04	0.0749891
30.045	0.07483749
30.05	0.07469961
30.055	0.0744954
30.06	0.07435749
30.065	0.07413058
30.07	0.07389635
30.075	0.07363125
30.08	0.07340493
30.085	0.07317143
30.09	0.07294573
30.095	0.0727338
30.1	0.07256494
30.105	0.07247138
30.11	0.07227594
30.115	0.07204583
30.12	0.07184682
30.125	0.071583
30.13	0.07124049
30.135	0.07099004
30.14	0.07072013
30.145	0.07032068
30.15	0.06968588
30.155	0.06911982
30.16	0.06856702
30.165	0.06805582
30.17	0.067598
30.175	0.0672037
30.18	0.06683643
30.185	0.06649415
30.19	0.06628554
30.195	0.06610507
30.2	0.06600669
30.205	0.06591322
30.21	0.06582335
30.215	0.06574937
30.22	0.0655982
30.225	0.06543729
30.23	0.06539802
30.235	0.06538508
30.24	0.06539616
30.245	0.06546273
30.25	0.06555728
30.255	0.06564132
30.26	0.06577409
30.265	0.06605854
30.27	0.06639708
30.275	0.06677079
30.28	0.06719257
30.285	0.06753281
30.29	0.06787704
30.295	0.06818064
30.3	0.06848056
30.305	0.06862001
30.31	0.06876887
30.315	0.06900785
30.32	0.06931895
30.325	0.06957592
30.33	0.06981883
30.335	0.07010491
30.34	0.07028615
30.345	0.070513
30.35	0.0708075
30.355	0.0711767
30.36	0.07156026
30.365	0.07184319
30.37	0.07212492
30.375	0.07229418
30.38	0.07246367
30.385	0.07257433
30.39	0.0726725
30.395	0.07277205
30.4	0.07289266
30.405	0.07300879
30.41	0.0731288
30.415	0.07324602
30.42	0.0733636
30.425	0.07365268
30.43	0.07390217
30.435	0.07395015
30.44	0.07402702
30.445	0.07411934
30.45	0.07414569
30.455	0.07408052
30.46	0.07400526
30.465	0.07402775
30.47	0.07377446
30.475	0.07355591
30.48	0.07328734
30.485	0.07297585
30.49	0.07269631
30.495	0.07241776
30.5	0.0721866
30.505	0.07196725
30.51	0.07179067
30.515	0.0716248
30.52	0.07148315
30.525	0.07127405
30.53	0.07126854
30.535	0.0713235
30.54	0.07138337
30.545	0.07149366
30.55	0.07153716
30.555	0.07163012
30.56	0.07173126
30.565	0.07181484
30.57	0.07195867
30.575	0.07211984
30.58	0.07233486
30.585	0.07266941
30.59	0.07311782
30.595	0.07352896
30.6	0.07394364
30.605	0.0742964
30.61	0.07469188
30.615	0.07506926
30.62	0.07546099
30.625	0.07584468
30.63	0.07596988
30.635	0.07610182
30.64	0.07630735
30.645	0.07647406
30.65	0.07668069
30.655	0.07689883
30.66	0.07716911
30.665	0.07744913
30.67	0.07756054
30.675	0.07780327
30.68	0.07795545
30.685	0.07815322
30.69	0.07834228
30.695	0.07856887
30.7	0.07878556
30.705	0.07895398
30.71	0.07911208
30.715	0.07930263
30.72	0.07946814
30.725	0.07950694
30.73	0.07958087
30.735	0.07935387
30.74	0.07908497
30.745	0.07881437
30.75	0.0785436
30.755	0.07830491
30.76	0.07796994
30.765	0.07765223
30.77	0.07734096
30.775	0.07702785
30.78	0.07670857
30.785	0.07644019
30.79	0.07595459
30.795	0.07531897
30.8	0.0747105
30.805	0.07410371
30.81	0.07355202
30.815	0.07291303
30.82	0.07227321
30.825	0.07160341
30.83	0.07092036
30.835	0.070373
30.84	0.06983573
30.845	0.0693037
30.85	0.06878701
30.855	0.06818208
30.86	0.06758586
30.865	0.06693256
30.87	0.06628251
30.875	0.06570572
30.88	0.06511635
30.885	0.06460331
30.89	0.0640482
30.895	0.06362586
30.9	0.06313458
30.905	0.06267993
30.91	0.06230528
30.915	0.06196502
30.92	0.06162796
30.925	0.06136276
30.93	0.06119395
30.935	0.06101511
30.94	0.0610152
30.945	0.06103636
30.95	0.06104115
30.955	0.06104883
30.96	0.06106541
30.965	0.06124078
30.97	0.061459
30.975	0.06167679
30.98	0.06189393
30.985	0.06212488
30.99	0.06222643
30.995	0.06256505
31	0.06301567
31.005	0.06355805
31.01	0.06406505
31.015	0.06451423
31.02	0.0649988
31.025	0.06548361
31.03	0.06603477
31.035	0.06673051
31.04	0.06740548
31.045	0.06810815
31.05	0.06880998
31.055	0.06945905
31.06	0.07010851
31.065	0.07086163
31.07	0.07169996
31.075	0.07259268
31.08	0.07349314
31.085	0.07438754
31.09	0.07522484
31.095	0.07604763
31.1	0.07668074
31.105	0.07730932
31.11	0.07792894
31.115	0.07850684
31.12	0.07905402
31.125	0.07963872
31.13	0.08012819
31.135	0.08060067
31.14	0.08107359
31.145	0.08153104
31.15	0.08199647
31.155	0.08248452
31.16	0.08296427
31.165	0.0834295
31.17	0.08378289
31.175	0.08407117
31.18	0.08434771
31.185	0.08462735
31.19	0.08489304
31.195	0.08520635
31.2	0.08534778
31.205	0.08542255
31.21	0.08534463
31.215	0.08528464
31.22	0.08523573
31.225	0.08522387
31.23	0.08522578
31.235	0.08512288
31.24	0.08480938
31.245	0.08449914
31.25	0.0841303
31.255	0.0837652
31.26	0.08353653
31.265	0.08333968
31.27	0.08296341
31.275	0.08249178
31.28	0.08190128
31.285	0.08127905
31.29	0.08067818
31.295	0.08009916
31.3	0.07956788
31.305	0.0791238
31.31	0.07872257
31.315	0.07825736
31.32	0.07773101
31.325	0.07714644
31.33	0.07644318
31.335	0.07581578
31.34	0.0752524
31.345	0.07472366
31.35	0.07420851
31.355	0.07373946
31.36	0.07322821
31.365	0.07285016
31.37	0.07247627
31.375	0.0721793
31.38	0.07197537
31.385	0.07179224
31.39	0.07164051
31.395	0.07149458
31.4	0.07134995
31.405	0.07129931
31.41	0.07133258
31.415	0.07145181
31.42	0.07155781
31.425	0.07168731
31.43	0.07173952
31.435	0.07181916
31.44	0.07196475
31.445	0.07223398
31.45	0.07254925
31.455	0.07289586
31.46	0.07326971
31.465	0.07340113
31.47	0.0735037
31.475	0.07369652
31.48	0.07393361
31.485	0.07421615
31.49	0.0745095
31.495	0.07475971
31.5	0.0750234
31.505	0.07521392
31.51	0.07538398
31.515	0.07549093
31.52	0.07562253
31.525	0.07581839
31.53	0.07606718
31.535	0.07637921
31.54	0.07662494
31.545	0.07684511
31.55	0.07702535
31.555	0.07722017
31.56	0.07729898
31.565	0.07748364
31.57	0.07750356
31.575	0.07757993
31.58	0.07759273
31.585	0.07749483
31.59	0.07737995
31.595	0.07720417
31.6	0.07699872
31.605	0.07678848
31.61	0.07658906
31.615	0.07631833
31.62	0.07602583
31.625	0.07578247
31.63	0.07550729
31.635	0.07526546
31.64	0.07492855
31.645	0.07458564
31.65	0.07422466
31.655	0.07377052
31.66	0.0733257
31.665	0.07280582
31.67	0.07240522
31.675	0.07201834
31.68	0.07171041
31.685	0.07142296
31.69	0.07117498
31.695	0.070945
31.7	0.07072157
31.705	0.07046433
31.71	0.07026651
31.715	0.07008143
31.72	0.07003312
31.725	0.07002275
31.73	0.06998908
31.735	0.06996551
31.74	0.06993965
31.745	0.06997854
31.75	0.06990806
31.755	0.06981623
31.76	0.06972427
31.765	0.06973111
31.77	0.06954251
31.775	0.06929979
31.78	0.06895669
31.785	0.0686042
31.79	0.06831543
31.795	0.06808329
31.8	0.06791351
31.805	0.06780669
31.81	0.06772676
31.815	0.06764012
31.82	0.06760314
31.825	0.06761861
31.83	0.06753771
31.835	0.06748109
31.84	0.06742895
31.845	0.06742954
31.85	0.06748366
31.855	0.06753606
31.86	0.06766538
31.865	0.06776866
31.87	0.0679438
31.875	0.06817965
31.88	0.06842471
31.885	0.06857991
31.89	0.06871426
31.895	0.06880142
31.9	0.06893545
31.905	0.0690723
31.91	0.06922876
31.915	0.06932541
31.92	0.06941972
31.925	0.06930617
31.93	0.06914929
31.935	0.06900459
31.94	0.06883535
31.945	0.06866638
31.95	0.06849197
31.955	0.06848376
31.96	0.06855812
31.965	0.06859337
31.97	0.06859244
31.975	0.06869087
31.98	0.06890859
31.985	0.06913558
31.99	0.06945034
31.995	0.06976242
32	0.06997806
32.005	0.07011903
32.01	0.07019899
32.015	0.07025364
32.02	0.07031504
32.025	0.07039244
32.03	0.07043515
32.035	0.07052433
32.04	0.07065022
32.045	0.07079552
32.05	0.07094869
32.055	0.07104377
32.06	0.07116455
32.065	0.07123687
32.07	0.07132497
32.075	0.07143103
32.08	0.07141854
32.085	0.07143799
32.09	0.07145804
32.095	0.07146967
32.1	0.07148836
32.105	0.07138149
32.11	0.07132893
32.115	0.07127849
32.12	0.07129682
32.125	0.07131436
32.13	0.07143944
32.135	0.07160017
32.14	0.07175966
32.145	0.07194221
32.15	0.07213568
32.155	0.0722717
32.16	0.07223356
32.165	0.0720924
32.17	0.07199406
32.175	0.07187118
32.18	0.07179195
32.185	0.07167646
32.19	0.07160129
32.195	0.07142904
32.2	0.07125754
32.205	0.07115365
32.21	0.07116619
32.215	0.071208
32.22	0.07125117
32.225	0.07128731
32.23	0.07125715
32.235	0.07127625
32.24	0.07134108
32.245	0.07139399
32.25	0.0714029
32.255	0.07141206
32.26	0.07144307
32.265	0.07144657
32.27	0.07152848
32.275	0.07161061
32.28	0.07156583
32.285	0.07157031
32.29	0.07151687
32.295	0.07142672
32.3	0.07134801
32.305	0.07126191
32.31	0.0713671
32.315	0.07142926
32.32	0.07149679
32.325	0.07149844
32.33	0.07150365
32.335	0.0715187
32.34	0.0715127
32.345	0.07151075
32.35	0.07153311
32.355	0.0715459
32.36	0.07159429
32.365	0.07174227
32.37	0.07193532
32.375	0.07208517
32.38	0.07227264
32.385	0.07237776
32.39	0.07262258
32.395	0.07282933
32.4	0.07318189
32.405	0.0735355
32.41	0.07384517
32.415	0.0740103
32.42	0.07416969
32.425	0.07440014
32.43	0.07463864
32.435	0.07494062
32.44	0.07515656
32.445	0.0752811
32.45	0.07530759
32.455	0.07536075
32.46	0.07543853
32.465	0.07548071
32.47	0.07555782
32.475	0.0755326
32.48	0.07551118
32.485	0.07556596
32.49	0.07562633
32.495	0.075694
32.5	0.07580075
32.505	0.07602609
32.51	0.07633791
32.515	0.07644536
32.52	0.07651502
32.525	0.076743
32.53	0.07699306
32.535	0.07725615
32.54	0.07748583
32.545	0.07771582
32.55	0.0779459
32.555	0.07823315
32.56	0.07866042
32.565	0.07911112
32.57	0.07967783
32.575	0.08022507
32.58	0.08084809
32.585	0.08144366
32.59	0.08208879
32.595	0.08252235
32.6	0.08297092
32.605	0.08327547
32.61	0.08357321
32.615	0.08389531
32.62	0.08427948
32.625	0.08466678
32.63	0.0849103
32.635	0.08514511
32.64	0.08537093
32.645	0.08565091
32.65	0.0859788
32.655	0.08637067
32.66	0.08683081
32.665	0.08729255
32.67	0.0877644
32.675	0.08819298
32.68	0.08874197
32.685	0.08931243
32.69	0.08989466
32.695	0.09047924
32.7	0.09107614
32.705	0.09169703
32.71	0.09211912
32.715	0.09241399
32.72	0.09276034
32.725	0.09312316
32.73	0.09321724
32.735	0.09331458
32.74	0.09340319
32.745	0.09351006
32.75	0.09361822
32.755	0.0937205
32.76	0.09363127
32.765	0.09329595
32.77	0.09289857
32.775	0.09227676
32.78	0.09171796
32.785	0.09104716
32.79	0.09038475
32.795	0.08967821
32.8	0.08905026
32.805	0.08842603
32.81	0.08782667
32.815	0.08722578
32.82	0.08662209
32.825	0.08606106
32.83	0.08549332
32.835	0.08500894
32.84	0.0845265
32.845	0.08401362
32.85	0.08346653
32.855	0.08315628
32.86	0.08283566
32.865	0.08251722
32.87	0.08211191
32.875	0.08172212
32.88	0.08135896
32.885	0.08086413
32.89	0.08029942
32.895	0.07972008
32.9	0.07912022
32.905	0.07847152
32.91	0.07776413
32.915	0.07716619
32.92	0.07664504
32.925	0.07614859
32.93	0.07566761
32.935	0.07532586
32.94	0.07498541
32.945	0.07463382
32.95	0.07426799
32.955	0.07399572
32.96	0.07373458
32.965	0.07361954
32.97	0.07366713
32.975	0.07378117
32.98	0.0740264
32.985	0.07415572
32.99	0.07435512
32.995	0.07455426
33	0.07479165
33.005	0.07507912
33.01	0.07543457
33.015	0.07582681
33.02	0.07622609
33.025	0.07660718
33.03	0.07687216
33.035	0.07713123
33.04	0.07740759
33.045	0.07768384
33.05	0.07795455
33.055	0.07824078
33.06	0.07798898
33.065	0.07773074
33.07	0.07722811
33.075	0.07683075
33.08	0.0764179
33.085	0.07599488
33.09	0.0755668
33.095	0.07517176
33.1	0.07473316
33.105	0.07433021
33.11	0.07401576
33.115	0.07374462
33.12	0.07351592
33.125	0.07328295
33.13	0.07304257
33.135	0.07277101
33.14	0.07256625
33.145	0.07235834
33.15	0.07214025
33.155	0.07193003
33.16	0.07161171
33.165	0.07127623
33.17	0.07100395
33.175	0.07072511
33.18	0.07040426
33.185	0.0700968
33.19	0.06985138
33.195	0.06959959
33.2	0.06934255
33.205	0.06910033
33.21	0.06875076
33.215	0.06826001
33.22	0.06774766
33.225	0.06721862
33.23	0.06668666
33.235	0.06625139
33.24	0.06582162
33.245	0.06539559
33.25	0.06503706
33.255	0.0647316
33.26	0.06442874
33.265	0.06446221
33.27	0.06450238
33.275	0.06470642
33.28	0.06479435
33.285	0.0648897
33.29	0.06498614
33.295	0.06518116
33.3	0.06551131
33.305	0.06591742
33.31	0.0663625
33.315	0.06673095
33.32	0.06711479
33.325	0.06742361
33.33	0.06773115
33.335	0.06805542
33.34	0.06840303
33.345	0.0686523
33.35	0.06891471
33.355	0.06920537
33.36	0.06955083
33.365	0.06981882
33.37	0.07014779
33.375	0.070344
33.38	0.07055049
33.385	0.07077722
33.39	0.07100921
33.395	0.07121362
33.4	0.07142132
33.405	0.07164164
33.41	0.07179685
33.415	0.07201316
33.42	0.07224333
33.425	0.0724781
33.43	0.07270812
33.435	0.07296661
33.44	0.07326517
33.445	0.07361177
33.45	0.07391223
33.455	0.0741088
33.46	0.07424749
33.465	0.07438397
33.47	0.07451271
33.475	0.0746485
33.48	0.07480873
33.485	0.075016
33.49	0.07523429
33.495	0.07545882
33.5	0.07561603
33.505	0.07553304
33.51	0.07537904
33.515	0.07507379
33.52	0.07478374
33.525	0.07440408
33.53	0.07402919
33.535	0.07367135
33.54	0.07328847
33.545	0.07291017
33.55	0.07255924
33.555	0.0721841
33.56	0.07178986
33.565	0.07130975
33.57	0.07094229
33.575	0.07046761
33.58	0.07005656
33.585	0.06965829
33.59	0.06925961
33.595	0.06897065
33.6	0.06869615
33.605	0.06852167
33.61	0.06832318
33.615	0.06819081
33.62	0.06804874
33.625	0.06799388
33.63	0.06794129
33.635	0.06791452
33.64	0.06785003
33.645	0.06760911
33.65	0.06726084
33.655	0.06685969
33.66	0.0664771
33.665	0.06615285
33.67	0.06582776
33.675	0.06550453
33.68	0.06517423
33.685	0.06482793
33.69	0.06448306
33.695	0.0641164
33.7	0.06376589
33.705	0.06345453
33.71	0.06328872
33.715	0.06321567
33.72	0.06326154
33.725	0.06330354
33.73	0.06342101
33.735	0.06356156
33.74	0.06366734
33.745	0.06379472
33.75	0.06390022
33.755	0.06404636
33.76	0.06419855
33.765	0.0644269
