Interval=	0.005 s
ExcelDateTime=	4.6085571766246088e+004	3/4/2026 13:43:20.603662
TimeFormat=	StartOfBlock
DateFormat=	
ChannelTitle=	RMS Biceps
Range=	0.18 mV
9.9	0.2095214
9.905	0.209165
9.91	0.2089107
9.915	0.2087071
9.92	0.2086905
9.925	0.2085831
9.93	0.2084628
9.935	0.2081634
9.94	0.2081445
9.945	0.2081375
9.95	0.2086159
9.955	0.2090987
9.96	0.2099686
9.965	0.2109451
9.97	0.2117356
9.975	0.2124919
9.98	0.2134115
9.985	0.2141729
9.99	0.2150065
9.995	0.2156628
10	0.2163976
10.005	0.2171384
10.01	0.2178371
10.015	0.2183695
10.02	0.2187647
10.025	0.2191353
10.03	0.2194924
10.035	0.2198351
10.04	0.220016
10.045	0.2198655
10.05	0.219592
10.055	0.2193359
10.06	0.2189162
10.065	0.2183503
10.07	0.2174872
10.075	0.2165774
10.08	0.2156346
10.085	0.2144974
10.09	0.2135323
10.095	0.2125137
10.1	0.2115068
10.105	0.2104896
10.11	0.2095193
10.115	0.2084655
10.12	0.2072987
10.125	0.2061882
10.13	0.2050341
10.135	0.2038609
10.14	0.2027762
10.145	0.2012087
10.15	0.1998068
10.155	0.1976469
10.16	0.1956042
10.165	0.1934311
10.17	0.1910345
10.175	0.1887095
10.18	0.1863391
10.185	0.1840074
10.19	0.1817543
10.195	0.1795139
10.2	0.1773427
10.205	0.1751994
10.21	0.1729925
10.215	0.1707983
10.22	0.1687326
10.225	0.1668088
10.23	0.164732
10.235	0.1626448
10.24	0.1605481
10.245	0.1585937
10.25	0.156943
10.255	0.1554746
10.26	0.1539813
10.265	0.1528397
10.27	0.1520069
10.275	0.1513828
10.28	0.1507575
10.285	0.1501358
10.29	0.1496168
10.295	0.1488968
10.3	0.1482634
10.305	0.1475612
10.31	0.1468423
10.315	0.1461237
10.32	0.145457
10.325	0.1451123
10.33	0.1448646
10.335	0.1449538
10.34	0.145086
10.345	0.1452214
10.35	0.1455344
10.355	0.145373
10.36	0.1455843
10.365	0.1453624
10.37	0.1452537
10.375	0.1452853
10.38	0.1453626
10.385	0.1455097
10.39	0.1456806
10.395	0.1457968
10.4	0.1459772
10.405	0.1462113
10.41	0.1463144
10.415	0.1465067
10.42	0.1466781
10.425	0.14696
10.43	0.1472195
10.435	0.147909
10.44	0.1485097
10.445	0.1495552
10.45	0.1506262
10.455	0.1523154
10.46	0.1540985
10.465	0.1560852
10.47	0.1577876
10.475	0.1592079
10.48	0.1606139
10.485	0.1620378
10.49	0.1634737
10.495	0.1649206
10.5	0.1665208
10.505	0.1680214
10.51	0.1695442
10.515	0.1711833
10.52	0.1728513
10.525	0.1745638
10.53	0.1758899
10.535	0.1770959
10.54	0.1779559
10.545	0.1788262
10.55	0.1797116
10.555	0.1806873
10.56	0.1819074
10.565	0.1832863
10.57	0.1848523
10.575	0.1868754
10.58	0.1888643
10.585	0.1910932
10.59	0.193272
10.595	0.1954236
10.6	0.1975717
10.605	0.1997719
10.61	0.2018917
10.615	0.2040563
10.62	0.2061476
10.625	0.2083093
10.63	0.21019
10.635	0.2120823
10.64	0.2134479
10.645	0.2148857
10.65	0.2158591
10.655	0.2167568
10.66	0.2168457
10.665	0.216796
10.67	0.2164422
10.675	0.2163442
10.68	0.2162218
10.685	0.2161973
10.69	0.2161344
10.695	0.216073
10.7	0.2160225
10.705	0.2159901
10.71	0.2162837
10.715	0.2165813
10.72	0.2168994
10.725	0.2171662
10.73	0.2173933
10.735	0.2181252
10.74	0.2189367
10.745	0.2198688
10.75	0.2207991
10.755	0.2217807
10.76	0.2227261
10.765	0.2236368
10.77	0.224483
10.775	0.2253052
10.78	0.225356
10.785	0.2254094
10.79	0.2249445
10.795	0.2244527
10.8	0.2238199
10.805	0.2233132
10.81	0.2225354
10.815	0.2217988
10.82	0.2211701
10.825	0.2205541
10.83	0.2198092
10.835	0.2192496
10.84	0.2186642
10.845	0.2183614
10.85	0.2181088
10.855	0.218081
10.86	0.2181886
10.865	0.2186988
10.87	0.2192199
10.875	0.2199116
10.88	0.2202884
10.885	0.2210716
10.89	0.221666
10.895	0.2227822
10.9	0.2240037
10.905	0.2253083
10.91	0.2265757
10.915	0.2273725
10.92	0.2282275
10.925	0.2287703
10.93	0.2293332
10.935	0.2298596
10.94	0.2297078
10.945	0.2294291	#1 JL BL1 (use) 
10.95	0.229113
10.955	0.2287789
10.96	0.2282938
10.965	0.2278829
10.97	0.2274543
10.975	0.2270096
10.98	0.2265677
10.985	0.2265138
10.99	0.2264643
10.995	0.2266714
11	0.2270038
11.005	0.2274383
11.01	0.2279308
11.015	0.2285783
11.02	0.2291749
11.025	0.2295042
11.03	0.2297977
11.035	0.2300969
11.04	0.2303892
11.045	0.2306925
11.05	0.2310381
11.055	0.2312009
11.06	0.231343
11.065	0.231325
11.07	0.2314096
11.075	0.231538
11.08	0.2316047
11.085	0.2318999
11.09	0.2315706
11.095	0.2313446
11.1	0.2301752
11.105	0.2288118
11.11	0.2272338
11.115	0.2254146
11.12	0.2236511
11.125	0.2217322
11.13	0.2200065
11.135	0.2185374
11.14	0.2170598
11.145	0.2160933
11.15	0.215211
11.155	0.2143027
11.16	0.2134065
11.165	0.2128788
11.17	0.2122983
11.175	0.2117387
11.18	0.211314
11.185	0.2109278
11.19	0.2105247
11.195	0.2103237
11.2	0.210276
11.205	0.2101203
11.21	0.210107
11.215	0.2095658
11.22	0.2091045
11.225	0.2086558
11.23	0.2083926
11.235	0.2086333
11.24	0.2091085
11.245	0.2098815
11.25	0.2106519
11.255	0.21128
11.26	0.2120043
11.265	0.2126316
11.27	0.2135356
11.275	0.2144647
11.28	0.2155651
11.285	0.2169096
11.29	0.2180483
11.295	0.2195331
11.3	0.2210401
11.305	0.2230555
11.31	0.2251265
11.315	0.2273482
11.32	0.2297552
11.325	0.2322457
11.33	0.2347974
11.335	0.2375781
11.34	0.2399266
11.345	0.2423629
11.35	0.2448001
11.355	0.2472277
11.36	0.2496755
11.365	0.2521058
11.37	0.2540348
11.375	0.2558798
11.38	0.2576161
11.385	0.2591351
11.39	0.2606052
11.395	0.2620783
11.4	0.2633549
11.405	0.2644229
11.41	0.2654208
11.415	0.2661872
11.42	0.2672406
11.425	0.2681564
11.43	0.2690805
11.435	0.2699705
11.44	0.2704233
11.445	0.2705828
11.45	0.2702744
11.455	0.2700029
11.46	0.2697858
11.465	0.2696148
11.47	0.2695215
11.475	0.2691394
11.48	0.2685083
11.485	0.2676277
11.49	0.2664183
11.495	0.2653215
11.5	0.2641913
11.505	0.2630022
11.51	0.2617397
11.515	0.2604926
11.52	0.259102
11.525	0.2576641
11.53	0.2562394
11.535	0.2547955
11.54	0.2528611
11.545	0.251097
11.55	0.249209
11.555	0.2468177
11.56	0.2443627
11.565	0.2419238
11.57	0.2394569
11.575	0.237293
11.58	0.2352008
11.585	0.2332011
11.59	0.2312842
11.595	0.229349
11.6	0.2273768
11.605	0.2252497
11.61	0.2231758
11.615	0.2211961
11.62	0.219352
11.625	0.21747
11.63	0.2156564
11.635	0.2138268
11.64	0.212089
11.645	0.210079
11.65	0.2083526
11.655	0.2066395
11.66	0.2048442
11.665	0.2031039
11.67	0.2012493
11.675	0.199368
11.68	0.1975922
11.685	0.1959457
11.69	0.1944403
11.695	0.1931227
11.7	0.1918401
11.705	0.1905911
11.71	0.1894031
11.715	0.1883418
11.72	0.1872098
11.725	0.1861806
11.73	0.1852794
11.735	0.1843227
11.74	0.183468
11.745	0.1829722
11.75	0.1821494
11.755	0.1813232
11.76	0.1809524
11.765	0.180609
11.77	0.180158
11.775	0.1797099
11.78	0.179062
11.785	0.1783721
11.79	0.1777162
11.795	0.1771615
11.8	0.1768634
11.805	0.1765818
11.81	0.1767517
11.815	0.1769762
11.82	0.1770871
11.825	0.1771726
11.83	0.1771794
11.835	0.1772306
11.84	0.1774128
11.845	0.177488
11.85	0.1779775
11.855	0.1787177
11.86	0.1797962
11.865	0.1808551
11.87	0.1818104
11.875	0.1828837
11.88	0.1839971
11.885	0.1851378
11.89	0.1863074
11.895	0.1873819
11.9	0.1884597
11.905	0.1894836
11.91	0.1906762
11.915	0.1919446
11.92	0.1932474
11.925	0.1945694
11.93	0.195877
11.935	0.1972444
11.94	0.1986662
11.945	0.2000849
11.95	0.2014967
11.955	0.2032262
11.96	0.205072
11.965	0.20687
11.97	0.2086472
11.975	0.21061
11.98	0.2125285
11.985	0.2146951
11.99	0.2168253
11.995	0.218802
12	0.2206402
12.005	0.2220938
12.01	0.2235513
12.015	0.2246193
12.02	0.2256605
12.025	0.2267448
12.03	0.227821
12.035	0.2290909
12.04	0.2302806
12.045	0.2313656
12.05	0.2323807
12.055	0.2333706
12.06	0.2338452
12.065	0.2342157
12.07	0.2350546
12.075	0.2358725
12.08	0.2366902
12.085	0.2374397
12.09	0.2383373
12.095	0.2391954
12.1	0.2403034
12.105	0.2413997
12.11	0.2423272
12.115	0.2428985
12.12	0.2432293
12.125	0.2434949
12.13	0.2438983
12.135	0.2444511
12.14	0.244777
12.145	0.245059
12.15	0.2451067
12.155	0.245075
12.16	0.2448946
12.165	0.2445194
12.17	0.2442292
12.175	0.2439414
12.18	0.2434456
12.185	0.2429741
12.19	0.2421973
12.195	0.2415035
12.2	0.2410398
12.205	0.2408809
12.21	0.2408781
12.215	0.2408606
12.22	0.2410357
12.225	0.2412238
12.23	0.2414065
12.235	0.2416164
12.24	0.2415396
12.245	0.2415274
12.25	0.2414317
12.255	0.241337
12.26	0.2416181
12.265	0.2419315
12.27	0.242398
12.275	0.2421112
12.28	0.2418958
12.285	0.2415236
12.29	0.2411983
12.295	0.2406067
12.3	0.2401
12.305	0.2392055
12.31	0.2383658
12.315	0.237688
12.32	0.2372132
12.325	0.2368512
12.33	0.2362564
12.335	0.2354189
12.34	0.2342759
12.345	0.233057
12.35	0.2318307
12.355	0.2306506
12.36	0.2295592
12.365	0.2285269
12.37	0.2276049
12.375	0.2264812
12.38	0.2253549
12.385	0.2242278
12.39	0.2230946
12.395	0.2221966
12.4	0.2211835
12.405	0.2198178
12.41	0.2178844
12.415	0.2159424
12.42	0.2139767
12.425	0.2119865
12.43	0.2100559
12.435	0.2081143
12.44	0.2061513
12.445	0.2043581
12.45	0.202488
12.455	0.2007052
12.46	0.1990485
12.465	0.1965647
12.47	0.1943216
12.475	0.1917952
12.48	0.1895457
12.485	0.1872353
12.49	0.1851541
12.495	0.183104
12.5	0.1814652
12.505	0.1797082
12.51	0.1783889
12.515	0.1769371
12.52	0.1754017
12.525	0.1738905
12.53	0.1724153
12.535	0.1712031
12.54	0.170115
12.545	0.1692567
12.55	0.1686275
12.555	0.168173
12.56	0.1678565
12.565	0.1677023
12.57	0.1676628
12.575	0.1676587
12.58	0.167903
12.585	0.1681825
12.59	0.1686572
12.595	0.1697466
12.6	0.1708837
12.605	0.1723767
12.61	0.1740445
12.615	0.1760584
12.62	0.1781297
12.625	0.1803715
12.63	0.182552
12.635	0.1848622
12.64	0.1871384
12.645	0.1895356
12.65	0.1918678
12.655	0.1942076
12.66	0.1964911
12.665	0.1985926
12.67	0.200973
12.675	0.2034972
12.68	0.2060777
12.685	0.2089898
12.69	0.2118484
12.695	0.2144537
12.7	0.216906
12.705	0.2189306
12.71	0.2209513
12.715	0.2226355
12.72	0.2244126
12.725	0.2262183
12.73	0.228179
12.735	0.2301109
12.74	0.2320259
12.745	0.2339808
12.75	0.2359556
12.755	0.2378976
12.76	0.2395755
12.765	0.241263
12.77	0.242616
12.775	0.2438605
12.78	0.2450677
12.785	0.2462077
12.79	0.2472961
12.795	0.24823
12.8	0.2482724
12.805	0.2480199
12.81	0.2473271
12.815	0.2466826
12.82	0.2461
12.825	0.2454558
12.83	0.2445539
12.835	0.2437794
12.84	0.2425501
12.845	0.2413373
12.85	0.2398869
12.855	0.2384723
12.86	0.2370435
12.865	0.2356333
12.87	0.2342955
12.875	0.2330275
12.88	0.2313039
12.885	0.2295919
12.89	0.2274523
12.895	0.2253477
12.9	0.2235332
12.905	0.2218646
12.91	0.2203832
12.915	0.2190378
12.92	0.2178489
12.925	0.2167337
12.93	0.2155799
12.935	0.2139333
12.94	0.2122316
12.945	0.2105444
12.95	0.2087193
12.955	0.2067355
12.96	0.2047721
12.965	0.2029439
12.97	0.2010468
12.975	0.199366
12.98	0.1976539
12.985	0.1959684
12.99	0.1941949
12.995	0.1924372
13	0.1907318
13.005	0.1897478
13.01	0.1890114
13.015	0.1885859
13.02	0.1881064
13.025	0.1874389
13.03	0.186803
13.035	0.1863515
13.04	0.1856177
13.045	0.1852424
13.05	0.1848342
13.055	0.1844789
13.06	0.1840959
13.065	0.1837696
13.07	0.1834174
13.075	0.1830335
13.08	0.182701
13.085	0.1827011
13.09	0.1831885
13.095	0.1837538
13.1	0.18442
13.105	0.1846311
13.11	0.1845372
13.115	0.1843855
13.12	0.1840154
13.125	0.1836438
13.13	0.1828623
13.135	0.1820905
13.14	0.1816479
13.145	0.1812731
13.15	0.1809845
13.155	0.1808988
13.16	0.1809196
13.165	0.1809105
13.17	0.1810191
13.175	0.1813277
13.18	0.1816923
13.185	0.1821344
13.19	0.1827684
13.195	0.1836663
13.2	0.1846012
13.205	0.1858259
13.21	0.186842
13.215	0.187951
13.22	0.1889876
13.225	0.1900695
13.23	0.1913017
13.235	0.1924061
13.24	0.1940168
13.245	0.1961566
13.25	0.1986245
13.255	0.201617
13.26	0.2046149
13.265	0.2075354
13.27	0.2102961
13.275	0.2130397
13.28	0.2158039
13.285	0.2184457
13.29	0.2211398
13.295	0.2230922
13.3	0.225434
13.305	0.2274534
13.31	0.2296198
13.315	0.2320326
13.32	0.2344707
13.325	0.236872
13.33	0.2394508
13.335	0.2422138
13.34	0.2449505
13.345	0.2476989
13.35	0.2504685
13.355	0.2530593
13.36	0.2557728
13.365	0.2584498
13.37	0.2617303
13.375	0.2649207
13.38	0.2682219
13.385	0.2713976
13.39	0.274671
13.395	0.2776221
13.4	0.2810436
13.405	0.284364
13.41	0.2876627
13.415	0.291064
13.42	0.2944093
13.425	0.2977453
13.43	0.3009773
13.435	0.3042152
13.44	0.3075554
13.445	0.3106626
13.45	0.313202
13.455	0.3156929
13.46	0.317496
13.465	0.3193255
13.47	0.3211411
13.475	0.3235398
13.48	0.3259289
13.485	0.3284038
13.49	0.3310281
13.495	0.3335157
13.5	0.3361233
13.505	0.3383095
13.51	0.3405645
13.515	0.342828
13.52	0.345284
13.525	0.34774
13.53	0.3503258
13.535	0.3526193
13.54	0.3548518
13.545	0.3570771
13.55	0.3592936
13.555	0.3614141
13.56	0.3637628
13.565	0.3660976
13.57	0.3685137
13.575	0.3705852
13.58	0.3726239
13.585	0.3742457
13.59	0.3777818
13.595	0.381069
13.6	0.3856526
13.605	0.389385
13.61	0.3931274
13.615	0.3989323
13.62	0.4045731
13.625	0.4124822
13.63	0.4204168
13.635	0.4292663
13.64	0.4383241
13.645	0.4475669
13.65	0.456448
13.655	0.4657719
13.66	0.4745143
13.665	0.483345
13.67	0.492025
13.675	0.5013258
13.68	0.5102041
13.685	0.5213111
13.69	0.5332313
13.695	0.5446825
13.7	0.5559282
13.705	0.5672624
13.71	0.5789307
13.715	0.5904296
13.72	0.601828
13.725	0.6126456
13.73	0.6235751
13.735	0.6342263
13.74	0.6448981
13.745	0.6554119
13.75	0.6670401
13.755	0.6785715
13.76	0.6900521
13.765	0.7012795
13.77	0.7124306
13.775	0.7233112
13.78	0.734202
13.785	0.7449626
13.79	0.7556538
13.795	0.7644452
13.8	0.7742425
13.805	0.7828158
13.81	0.7927236
13.815	0.8028798
13.82	0.8110071
13.825	0.8191242
13.83	0.8248049
13.835	0.8303009
13.84	0.8353176
13.845	0.8399097
13.85	0.8440666
13.855	0.8481905
13.86	0.8518283
13.865	0.8555834
13.87	0.8593792
13.875	0.8631277
13.88	0.8660508
13.885	0.8686503
13.89	0.8683799
13.895	0.866675
13.9	0.8652789
13.905	0.8641985
13.91	0.8628369
13.915	0.861009
13.92	0.8591137
13.925	0.8571525
13.93	0.8553377
13.935	0.8531645
13.94	0.8510362
13.945	0.8487851
13.95	0.8468976
13.955	0.8429895
13.96	0.839729
13.965	0.8362549
13.97	0.8326679
13.975	0.8285819
13.98	0.8246504
13.985	0.820209
13.99	0.8158754
13.995	0.8115262
14	0.807802
14.005	0.8021088
14.01	0.796755
14.015	0.7887526
14.02	0.7799592
14.025	0.7714895
14.03	0.7627434
14.035	0.7551868
14.04	0.7475804
14.045	0.7391114
14.05	0.7306067
14.055	0.722206
14.06	0.7136937
14.065	0.70536
14.07	0.6969565
14.075	0.6882323
14.08	0.6794359
14.085	0.6709547
14.09	0.6627719
14.095	0.6563984
14.1	0.6509394
14.105	0.6448007
14.11	0.6377423
14.115	0.6306338
14.12	0.6235132
14.125	0.616357
14.13	0.6088794
14.135	0.6013343
14.14	0.5937174
14.145	0.5858996
14.15	0.5779602
14.155	0.5688231
14.16	0.5610223
14.165	0.5505704
14.17	0.5400623
14.175	0.5293919
14.18	0.5190303
14.185	0.5080178
14.19	0.4969235
14.195	0.4850984
14.2	0.4730148
14.205	0.4608371
14.21	0.4499103
14.215	0.4389497
14.22	0.4301977
14.225	0.4216745
14.23	0.4137769
14.235	0.4059227
14.24	0.3977981
14.245	0.3895777
14.25	0.3825532
14.255	0.375645
14.26	0.3685376
14.265	0.3614144
14.27	0.3541593
14.275	0.3466913
14.28	0.3395002
14.285	0.3321001
14.29	0.3245281
14.295	0.316489
14.3	0.3082048
14.305	0.2997178
14.31	0.2917415
14.315	0.2845049
14.32	0.2773236
14.325	0.2703201
14.33	0.2631093
14.335	0.2561435
14.34	0.2488509
14.345	0.2416493
14.35	0.234401
14.355	0.2269361
14.36	0.2207368
14.365	0.2144292
14.37	0.2116573
14.375	0.2088693
14.38	0.2061207
14.385	0.2033155
14.39	0.2010339
14.395	0.1994933
14.4	0.1980903
14.405	0.1967286
14.41	0.195337
14.415	0.194299
14.42	0.1931298
14.425	0.1919455
14.43	0.1911339
14.435	0.1907678
14.44	0.190493
14.445	0.1905521
14.45	0.1906053
14.455	0.1904516
14.46	0.1902884
14.465	0.1903507
14.47	0.1909615
14.475	0.1915302
14.48	0.192389
14.485	0.1925473
14.49	0.1926969
14.495	0.1930109
14.5	0.1935543
14.505	0.1941238
14.51	0.1946961
14.515	0.1950455
14.52	0.1954085
14.525	0.1957973
14.53	0.1963843
14.535	0.1970639
14.54	0.1978156
14.545	0.1988293
14.55	0.1999455
14.555	0.2011168
14.56	0.202454
14.565	0.2034511
14.57	0.204457
14.575	0.2053078
14.58	0.2061884
14.585	0.2071614
14.59	0.2080939
14.595	0.2090321
14.6	0.2100288
14.605	0.2115228
14.61	0.2128124
14.615	0.2141492
14.62	0.2151655
14.625	0.2161818
14.63	0.2172154
14.635	0.2183075
14.64	0.2185851
14.645	0.2188723
14.65	0.218771
14.655	0.2186931
14.66	0.218737
14.665	0.21888
14.67	0.2189098
14.675	0.2180965
14.68	0.2173179
14.685	0.2163346
14.69	0.2159174
14.695	0.2155185
14.7	0.2152414
14.705	0.2150961
14.71	0.2150015
14.715	0.2149455
14.72	0.2150494
14.725	0.2151408
14.73	0.2151899
14.735	0.2150923
14.74	0.2148481
14.745	0.2145589
14.75	0.213848
14.755	0.2130912
14.76	0.212167
14.765	0.2111672
14.77	0.2103342
14.775	0.20946
14.78	0.208542
14.785	0.2075586
14.79	0.2065138
14.795	0.2054941
14.8	0.2045064
14.805	0.2034645
14.81	0.2023419
14.815	0.201352
14.82	0.2005382
14.825	0.1999318
14.83	0.1996019
14.835	0.1992828
14.84	0.1988827
14.845	0.1989315
14.85	0.1987796
14.855	0.198923
14.86	0.1990622
14.865	0.1991467
14.87	0.1990175
14.875	0.1989915
14.88	0.1994322
14.885	0.2000579
14.89	0.2005942
14.895	0.2008949
14.9	0.2013965
14.905	0.2016399
14.91	0.2017554
14.915	0.2018063
14.92	0.2018081
14.925	0.2017375
14.93	0.2016813
14.935	0.2016672
14.94	0.2014839
14.945	0.2013891
14.95	0.2013637
14.955	0.2016375
14.96	0.2019805
14.965	0.2024317
14.97	0.2029347
14.975	0.2035578
14.98	0.2042151
14.985	0.2051162
14.99	0.2061424
14.995	0.2072274
15	0.2085394
15.005	0.2097867
15.01	0.2111542
15.015	0.212287
15.02	0.2133794
15.025	0.2139908
15.03	0.2146847
15.035	0.2149702
15.04	0.2152752
15.045	0.2155446
15.05	0.2158176
15.055	0.2162515
15.06	0.2167455
15.065	0.2173082
15.07	0.2179585
15.075	0.218714
15.08	0.2194416
15.085	0.2201284
15.09	0.2204405
15.095	0.2209198
15.1	0.2211508
15.105	0.221341
15.11	0.2218075
15.115	0.2221875
15.12	0.2226219
15.125	0.2230355
15.13	0.2235361
15.135	0.2240192
15.14	0.2244703
15.145	0.2250052
15.15	0.2256126
15.155	0.2260208
15.16	0.2263742
15.165	0.2266329
15.17	0.2268718
15.175	0.2271018
15.18	0.2271407
15.185	0.2271355
15.19	0.226909
15.195	0.2265015
15.2	0.2261155
15.205	0.2253289
15.21	0.2245499
15.215	0.2236272
15.22	0.222741
15.225	0.2219076
15.23	0.2213283
15.235	0.220597
15.24	0.2200118
15.245	0.2193148
15.25	0.2186655
15.255	0.2180146
15.26	0.2172722
15.265	0.2164081
15.27	0.215347
15.275	0.2141657
15.28	0.2131096
15.285	0.2120679
15.29	0.2112277
15.295	0.2109531
15.3	0.2103657
15.305	0.2102195
15.31	0.2096007
15.315	0.2086434
15.32	0.2077182
15.325	0.2067663
15.33	0.2058501
15.335	0.2049845
15.34	0.2041304
15.345	0.2032908
15.35	0.2025003
15.355	0.2015738
15.36	0.2008204
15.365	0.2000961
15.37	0.1994638
15.375	0.1988603
15.38	0.1982554
15.385	0.1979893
15.39	0.1977645
15.395	0.1977223
15.4	0.19782
15.405	0.197778
15.41	0.1979363
15.415	0.1980831
15.42	0.1980381
15.425	0.1980993
15.43	0.1981696
15.435	0.1982297
15.44	0.1983366
15.445	0.1984672
15.45	0.1986633
15.455	0.1989696
15.46	0.1992768
15.465	0.1996819
15.47	0.2001498
15.475	0.2008147
15.48	0.2015364
15.485	0.2020655
15.49	0.2025825
15.495	0.202738
15.5	0.2020853
15.505	0.2016703
15.51	0.2007435
15.515	0.2002271
15.52	0.1998831
15.525	0.1995934
15.53	0.1991526
15.535	0.1987604
15.54	0.1981009
15.545	0.1975322
15.55	0.197151
15.555	0.196785
15.56	0.1964304
15.565	0.1960037
15.57	0.195579
15.575	0.1950798
15.58	0.1945463
15.585	0.1940834
15.59	0.1931308
15.595	0.1923
15.6	0.1911625
15.605	0.1901234
15.61	0.1891711
15.615	0.1883702
15.62	0.1875844
15.625	0.1869826
15.63	0.1863794
15.635	0.1856213
15.64	0.1848615
15.645	0.1843943
15.65	0.1839201
15.655	0.183607
15.66	0.1830368
15.665	0.1824692
15.67	0.1817856
15.675	0.1810989
15.68	0.1801931
15.685	0.1798807
15.69	0.1794921
15.695	0.1796479
15.7	0.180115
15.705	0.1810515
15.71	0.1819538
15.715	0.1832257
15.72	0.1844049
15.725	0.1855886
15.73	0.1867432
15.735	0.1882502
15.74	0.189616
15.745	0.191109
15.75	0.19246
15.755	0.193425
15.76	0.1943668
15.765	0.1953365
15.77	0.1963224
15.775	0.197311
15.78	0.1983749
15.785	0.1994351
15.79	0.2003231
15.795	0.2015011
15.8	0.2024164
15.805	0.2035146
15.81	0.2043025
15.815	0.2050949
15.82	0.2059812
15.825	0.2068635
15.83	0.2079385
15.835	0.2090171
15.84	0.2101729
15.845	0.211324
15.85	0.2119837
15.855	0.2127103
15.86	0.2133046
15.865	0.2140123
15.87	0.214805
15.875	0.215794
15.88	0.2167774
15.885	0.2178624
15.89	0.2179659
15.895	0.2182014
15.9	0.2175766
15.905	0.2167658
15.91	0.2160075
15.915	0.2152569
15.92	0.2145001
15.925	0.213708
15.93	0.2129007
15.935	0.2121054
15.94	0.2109305
15.945	0.2098577
15.95	0.2086936
15.955	0.2075741
15.96	0.2066053
15.965	0.2056255
15.97	0.2046391
15.975	0.203672
15.98	0.2025874
15.985	0.2014113
15.99	0.2002525
15.995	0.1991849
16	0.1980473
16.005	0.1970585
16.01	0.1961955
16.015	0.1955566
16.02	0.1948944
16.025	0.1936206
16.03	0.1923562
16.035	0.1907375
16.04	0.1890964
16.045	0.1874612
16.05	0.1858075
16.055	0.1844272
16.06	0.1829061
16.065	0.1812163
16.07	0.1795154
16.075	0.1776794
16.08	0.175465
16.085	0.1732713
16.09	0.1710339
16.095	0.1693953
16.1	0.1676631
16.105	0.1663987
16.11	0.165254
16.115	0.1639417
16.12	0.1626857
16.125	0.1612437
16.13	0.1598788
16.135	0.1585077
16.14	0.1571468
16.145	0.1559743
16.15	0.1546476
16.155	0.153418
16.16	0.1520224
16.165	0.1506321
16.17	0.1492475
16.175	0.1479043
16.18	0.1466078
16.185	0.1454127
16.19	0.1443237
16.195	0.1431745
16.2	0.1419482
16.205	0.1406696
16.21	0.139276
16.215	0.1375298
16.22	0.1356281
16.225	0.1337187
16.23	0.1322815
16.235	0.1307941
16.24	0.1294915
16.245	0.1282738
16.25	0.1271067
16.255	0.1259364
16.26	0.1247573
16.265	0.1236656
16.27	0.1229695
16.275	0.1222656
16.28	0.1214115
16.285	0.1208194
16.29	0.1202608
16.295	0.1197374
16.3	0.119359
16.305	0.1190829
16.31	0.1190074
16.315	0.1190219
16.32	0.1191516
16.325	0.1191282
16.33	0.1192849
16.335	0.1193707
16.34	0.1194382
16.345	0.1194409
16.35	0.1194614
16.355	0.1196654
16.36	0.1198791
16.365	0.1202833
16.37	0.1206897
16.375	0.1210989
16.38	0.1213887
16.385	0.1215392
16.39	0.1217255
16.395	0.121784
16.4	0.1219251
16.405	0.1222613
16.41	0.1227158
16.415	0.1233059
16.42	0.1240144
16.425	0.1247867
16.43	0.1255686
16.435	0.1264584
16.44	0.1273382
16.445	0.1283235
16.45	0.1291054
16.455	0.129706
16.46	0.1303097
16.465	0.1309459
16.47	0.1315827
16.475	0.1319342
16.48	0.1323645
16.485	0.1329796
16.49	0.1338222
16.495	0.134417
16.5	0.1351183
16.505	0.1355617
16.51	0.135988
16.515	0.1362091
16.52	0.1362569
16.525	0.136456
16.53	0.1367001
16.535	0.1368984
16.54	0.1371291
16.545	0.1373789
16.55	0.1376772
16.555	0.1380109
16.56	0.1383468
16.565	0.1387406
16.57	0.1391711
16.575	0.1397114
16.58	0.1402574
16.585	0.1408642
16.59	0.1414703
16.595	0.1420306
16.6	0.1426081
16.605	0.1432001
16.61	0.1436364
16.615	0.1439341
16.62	0.1442302
16.625	0.1446425
16.63	0.1450535
16.635	0.1454361
16.64	0.1458053
16.645	0.1461834
16.65	0.1463902
16.655	0.1466708
16.66	0.1470073
16.665	0.147382
16.67	0.1477351
16.675	0.1481371
16.68	0.1486295
16.685	0.1489532
16.69	0.1492003
16.695	0.1491604
16.7	0.1492922
16.705	0.1492887
16.71	0.1494256
16.715	0.1494676
16.72	0.1495997
16.725	0.1498206
16.73	0.1497919
16.735	0.1497849
16.74	0.149794
16.745	0.1498879
16.75	0.1499823
16.755	0.1504045
16.76	0.150865
16.765	0.1512237
16.77	0.1514735
16.775	0.1516062
16.78	0.1515421
16.785	0.1514345
16.79	0.1513085
16.795	0.1513326
16.8	0.1513704
16.805	0.1514414
16.81	0.1513617
16.815	0.1513038
16.82	0.1513422
16.825	0.1513302
16.83	0.1511701
16.835	0.151048
16.84	0.1509319
16.845	0.1507795
16.85	0.1506796
16.855	0.1506713
16.86	0.1510663
16.865	0.1516194
16.87	0.1521996
16.875	0.1527874
16.88	0.1533078
16.885	0.1538191
16.89	0.1544178
16.895	0.1550503
16.9	0.1558634
16.905	0.1566318
16.91	0.1573475
16.915	0.1580599
16.92	0.1588811
16.925	0.1596848
16.93	0.1604708
16.935	0.1613284
16.94	0.1622365
16.945	0.1635754
16.95	0.1647627
16.955	0.1662423
16.96	0.1671024
16.965	0.1678576
16.97	0.1685706
16.975	0.169365
16.98	0.1701817
16.985	0.1712092
16.99	0.1722693
16.995	0.173611
17	0.1748052
17.005	0.1759972
17.01	0.1771594
17.015	0.1784073
17.02	0.1796279
17.025	0.1808179
17.03	0.1819628
17.035	0.1836283
17.04	0.1852854
17.045	0.1873376
17.05	0.189662
17.055	0.1919393
17.06	0.1942024
17.065	0.1958638
17.07	0.1975355
17.075	0.1993692
17.08	0.2013676
17.085	0.2036024
17.09	0.2058275
17.095	0.2080294
17.1	0.2102006
17.105	0.2121018
17.11	0.21398
17.115	0.215878
17.12	0.2177075
17.125	0.2194706
17.13	0.2212259
17.135	0.2229587
17.14	0.2247005
17.145	0.226396
17.15	0.2275693
17.155	0.2287711
17.16	0.2296979
17.165	0.230991
17.17	0.2323096
17.175	0.2336586
17.18	0.2349641
17.185	0.2362839
17.19	0.2374042
17.195	0.2385635
17.2	0.2393575
17.205	0.2401737
17.21	0.2411002
17.215	0.2420327
17.22	0.2429721
17.225	0.2439276
17.23	0.2448901
17.235	0.2458667
17.24	0.2461557
17.245	0.24638
17.25	0.2459905
17.255	0.24506
17.26	0.2440822
17.265	0.2430836
17.27	0.2422916
17.275	0.2412102
17.28	0.2396904
17.285	0.2378255
17.29	0.2355072
17.295	0.2331937
17.3	0.2308544
17.305	0.2284992
17.31	0.226279
17.315	0.224046
17.32	0.2217737
17.325	0.2195511
17.33	0.2173393
17.335	0.2153311
17.34	0.2133148
17.345	0.2112987
17.35	0.2091807
17.355	0.2071451
17.36	0.205085
17.365	0.2028556
17.37	0.2002185
17.375	0.1975574
17.38	0.1948728
17.385	0.1921454
17.39	0.1893863
17.395	0.1867357
17.4	0.1838907
17.405	0.1811727
17.41	0.178382
17.415	0.175235
17.42	0.1720586
17.425	0.168763
17.43	0.1654639
17.435	0.1621222
17.44	0.1587354
17.445	0.155797
17.45	0.1530065
17.455	0.150747
17.46	0.1490309
17.465	0.147382
17.47	0.1457311
17.475	0.144073
17.48	0.1426827
17.485	0.1416548
17.49	0.1408283
17.495	0.140345
17.5	0.139774
17.505	0.1392018
17.51	0.1386745
17.515	0.1381586
17.52	0.1376239
17.525	0.1372089
17.53	0.1370152
17.535	0.1371719
17.54	0.1367086
17.545	0.1362985
17.55	0.1358176
17.555	0.135437
17.56	0.1352336
17.565	0.13506
17.57	0.135183
17.575	0.1356866
17.58	0.1362414
17.585	0.1367901
17.59	0.1374229
17.595	0.1381025
17.6	0.1387793
17.605	0.1395722
17.61	0.1403731
17.615	0.1412773
17.62	0.1424051
17.625	0.1434644
17.63	0.1446183
17.635	0.1456729
17.64	0.1466544
17.645	0.1475662
17.65	0.1485529
17.655	0.1492252
17.66	0.149727
17.665	0.1500841
17.67	0.1503242
17.675	0.150562
17.68	0.1508272
17.685	0.1511034
17.69	0.1514722
17.695	0.1519064
17.7	0.1524672
17.705	0.153083
17.71	0.1536967
17.715	0.1542319
17.72	0.154732
17.725	0.1553572
17.73	0.155843
17.735	0.1559194
17.74	0.1552942
17.745	0.1548303
17.75	0.1543168
17.755	0.1540291
17.76	0.1539976
17.765	0.154064
17.77	0.1541118
17.775	0.1541802
17.78	0.1541278
17.785	0.1539644
17.79	0.1538267
17.795	0.1536287
17.8	0.1536426
17.805	0.1535568
17.81	0.1535367
17.815	0.1535487
17.82	0.1535252
17.825	0.153435
17.83	0.1535645
17.835	0.1537668
17.84	0.1539641
17.845	0.1542008
17.85	0.1545328
17.855	0.1548189
17.86	0.1553041
17.865	0.1558871
17.87	0.1565551
17.875	0.1573007
17.88	0.1580437
17.885	0.1587667
17.89	0.1595008
17.895	0.160208
17.9	0.1609208
17.905	0.1614638
17.91	0.1621108
17.915	0.1627624
17.92	0.1634305
17.925	0.1640683
17.93	0.1644915
17.935	0.16498
17.94	0.1654535
17.945	0.1663313
17.95	0.1673281
17.955	0.1683401
17.96	0.1689812
17.965	0.1692626
17.97	0.1693705
17.975	0.1695198
17.98	0.1696469
17.985	0.1698252
17.99	0.170056
17.995	0.1703805
18	0.1706756
18.005	0.1704464
18.01	0.1703315
18.015	0.1700802
18.02	0.1698227
18.025	0.1694697
18.03	0.1691515
18.035	0.168488
18.04	0.1675143
18.045	0.1666002
18.05	0.165765
18.055	0.1649084
18.06	0.1640502
18.065	0.1631279
18.07	0.1621624
18.075	0.1612409
18.08	0.1603159
18.085	0.1593904
18.09	0.1584268
18.095	0.157471
18.1	0.1563922
18.105	0.155357
18.11	0.1544398
18.115	0.1532679
18.12	0.1521613
18.125	0.151165
18.13	0.1504519
18.135	0.1498942
18.14	0.1493839
18.145	0.1490924
18.15	0.1487059
18.155	0.1481917
18.16	0.1476399
18.165	0.1473269
18.17	0.1470569
18.175	0.1469137
18.18	0.1467425
18.185	0.1466855
18.19	0.1466509
18.195	0.1466197
18.2	0.1463038
18.205	0.1460367
18.21	0.1461056
18.215	0.1461105
18.22	0.1462133
18.225	0.1463217
18.23	0.1465896
18.235	0.1468648
18.24	0.1473261
18.245	0.1480409
18.25	0.1487882
18.255	0.149305
18.26	0.1499054
18.265	0.1503644
18.27	0.1508427
18.275	0.1513891
18.28	0.1517974
18.285	0.1521902
18.29	0.1525694
18.295	0.1530172
18.3	0.1534095
18.305	0.1538736
18.31	0.1542316
18.315	0.1544692
18.32	0.154847
18.325	0.1550593
18.33	0.1550678
18.335	0.1547775
18.34	0.1544118
18.345	0.1539906
18.35	0.1534955
18.355	0.1529959
18.36	0.1525681
18.365	0.152093
18.37	0.1515994
18.375	0.1511935
18.38	0.1507293
18.385	0.1502455
18.39	0.1495562
18.395	0.1488814
18.4	0.148196
18.405	0.1479509
18.41	0.1476903
18.415	0.1474958
18.42	0.1472997
18.425	0.1471096
18.43	0.1471286
18.435	0.1470081
18.44	0.1470036
18.445	0.1470119
18.45	0.1469293
18.455	0.1467405
18.46	0.1466933
18.465	0.1463527
18.47	0.1461383
18.475	0.1458828
18.48	0.1455473
18.485	0.1452495
18.49	0.1449455
18.495	0.1446444
18.5	0.1442668
18.505	0.1439241
18.51	0.1437686
18.515	0.1436433
18.52	0.1436381
18.525	0.1435508
18.53	0.1435524
18.535	0.143658
18.54	0.1436384
18.545	0.1436711
18.55	0.1436627
18.555	0.1437094
18.56	0.1439964
18.565	0.1442701
18.57	0.1449481
18.575	0.1456737
18.58	0.146409
18.585	0.1473712
18.59	0.1485864
18.595	0.149933
18.6	0.1513947
18.605	0.1528573
18.61	0.1538286
18.615	0.1548404
18.62	0.155672
18.625	0.1564553
18.63	0.1572005
18.635	0.1576555
18.64	0.1582042
18.645	0.158523
18.65	0.1590234
18.655	0.1595707
18.66	0.1601827
18.665	0.160877
18.67	0.1617284
18.675	0.162632
18.68	0.1635594
18.685	0.1644952
18.69	0.1654512
18.695	0.1664169
18.7	0.1673888
18.705	0.1684474
18.71	0.1694954
18.715	0.170247
18.72	0.1710292
18.725	0.1717488
18.73	0.172524
18.735	0.17334
18.74	0.1741739
18.745	0.1751721
18.75	0.176272
18.755	0.1774291
18.76	0.1788676
18.765	0.1799627
18.77	0.1811454
18.775	0.1817841
18.78	0.1823123
18.785	0.1828328
18.79	0.1830556
18.795	0.1828463
18.8	0.1826548
18.805	0.1821289
18.81	0.1815808
18.815	0.1811528
18.82	0.180735
18.825	0.1804342
18.83	0.1802377
18.835	0.1800382
18.84	0.1798568
18.845	0.1796785
18.85	0.1795654
18.855	0.1792948
18.86	0.1790114
18.865	0.1787799
18.87	0.1783766
18.875	0.177991
18.88	0.1774778
18.885	0.1769817
18.89	0.1764907
18.895	0.1760553
18.9	0.1756503
18.905	0.1752331
18.91	0.1747824
18.915	0.174352
18.92	0.1740827
18.925	0.1737813
18.93	0.1734879
18.935	0.1732484
18.94	0.1729642
18.945	0.1726508
18.95	0.1723145
18.955	0.1717257
18.96	0.1710772
18.965	0.1697962
18.97	0.16871
18.975	0.1674152
18.98	0.1664022
18.985	0.165509
18.99	0.1646178
18.995	0.1639478
19	0.1635597
19.005	0.1630162
19.01	0.1626521
19.015	0.1624396
19.02	0.1623259
19.025	0.1621462
19.03	0.1618715
19.035	0.1614379
19.04	0.1610361
19.045	0.1608267
19.05	0.1608243
19.055	0.1609186
19.06	0.1608865
19.065	0.160876
19.07	0.1605521
19.075	0.1603948
19.08	0.1602186
19.085	0.1601242
19.09	0.1600044
19.095	0.1599358
19.1	0.1597394
19.105	0.1595044
19.11	0.1593019
19.115	0.1589684
19.12	0.1586189
19.125	0.1582093
19.13	0.157825
19.135	0.1574551
19.14	0.1569628
19.145	0.1565324
19.15	0.1561778
19.155	0.1558423
19.16	0.1556331
19.165	0.1554684
19.17	0.1556067
19.175	0.1557556
19.18	0.1560052
19.185	0.1562867
19.19	0.1564244
19.195	0.1565596
19.2	0.1565782
19.205	0.1566039
19.21	0.1568591
19.215	0.1572405
19.22	0.1573331
19.225	0.1573871
19.23	0.1574317
19.235	0.1575975
19.24	0.1578715
19.245	0.1581112
19.25	0.1580603
19.255	0.1575029
19.26	0.1568186
19.265	0.1561694
19.27	0.1554903
19.275	0.1550333
19.28	0.154506
19.285	0.1539495
19.29	0.1534036
19.295	0.1528851
19.3	0.1523036
19.305	0.1517975
19.31	0.1512273
19.315	0.1506171
19.32	0.1501539
19.325	0.1497243
19.33	0.1493323
19.335	0.149294
19.34	0.1493824
19.345	0.1495159
19.35	0.1495904
19.355	0.1496455
19.36	0.1496992
19.365	0.1499927
19.37	0.1502713
19.375	0.1508665
19.38	0.1513629
19.385	0.1518647
19.39	0.1523991
19.395	0.1530224
19.4	0.1536616
19.405	0.15432
19.41	0.154867
19.415	0.155201
19.42	0.1554617
19.425	0.1559025
19.43	0.1562646
19.435	0.156592
19.44	0.1568388
19.445	0.1570458
19.45	0.1572903
19.455	0.1577445
19.46	0.1584102
19.465	0.1591399
19.47	0.1599611
19.475	0.1608359
19.48	0.1617138
19.485	0.1625195
19.49	0.163573
19.495	0.164778
19.5	0.1661666
19.505	0.1676259
19.51	0.1690629
19.515	0.170573
19.52	0.1720526
19.525	0.1737442
19.53	0.175432
19.535	0.1773449
19.54	0.1786865
19.545	0.1798156
19.55	0.1809206
19.555	0.1819271
19.56	0.1828673
19.565	0.1838027
19.57	0.1844203
19.575	0.1850396
19.58	0.1851875
19.585	0.1853791
19.59	0.1855686
19.595	0.1858687
19.6	0.1861473
19.605	0.1865129
19.61	0.1868684
19.615	0.1873091
19.62	0.1877793
19.625	0.1881414
19.63	0.1884466
19.635	0.1889838
19.64	0.189852
19.645	0.1907279
19.65	0.1917203
19.655	0.1927367
19.66	0.193673
19.665	0.1946577
19.67	0.1956189
19.675	0.1965941
19.68	0.1978643
19.685	0.2000819
19.69	0.2025588
19.695	0.2053303
19.7	0.2078583
19.705	0.2100107
19.71	0.2120338
19.715	0.2140335
19.72	0.2159931
19.725	0.2179507
19.73	0.2194495
19.735	0.2208919
19.74	0.2219349
19.745	0.2231268
19.75	0.2243848
19.755	0.2256578
19.76	0.2270891
19.765	0.2285162
19.77	0.2299248
19.775	0.231597
19.78	0.2333156
19.785	0.2352278
19.79	0.2371167
19.795	0.2390415
19.8	0.2406271
19.805	0.2422187
19.81	0.2436391
19.815	0.2450789
19.82	0.2464837
19.825	0.2479132
19.83	0.2494003
19.835	0.2509589
19.84	0.2522328
19.845	0.2530978
19.85	0.2539373
19.855	0.2548403
19.86	0.2557479
19.865	0.2567685
19.87	0.2578549
19.875	0.2589594
19.88	0.2600019
19.885	0.2605048
19.89	0.259537
19.895	0.2582211
19.9	0.2559368
19.905	0.2536156
19.91	0.2514225
19.915	0.2493818
19.92	0.2473269
19.925	0.2453309
19.93	0.243334
19.935	0.2415341
19.94	0.239733
19.945	0.2385802
19.95	0.238144
19.955	0.238206
19.96	0.2388533
19.965	0.2393265
19.97	0.2399786
19.975	0.2407173
19.98	0.2413965
19.985	0.2421242
19.99	0.2428448
19.995	0.2436843
20	0.2444255
20.005	0.2454311
20.01	0.2464205
20.015	0.2475023
20.02	0.2485502
20.025	0.249599
20.03	0.2508062
20.035	0.2520292
20.04	0.2533624
20.045	0.2548402
20.05	0.2564696
20.055	0.2581175
20.06	0.2593968
20.065	0.2606008
20.07	0.2621476
20.075	0.2636399
20.08	0.265649
20.085	0.2676771
20.09	0.2699524
20.095	0.2728925
20.1	0.275899
20.105	0.2793965
20.11	0.2829572
20.115	0.2866112
20.12	0.2900644
20.125	0.2935603
20.13	0.2969994
20.135	0.3003981
20.14	0.3037623
20.145	0.3070259
20.15	0.3095173
20.155	0.310966
20.16	0.3121602
20.165	0.3124481
20.17	0.3133131
20.175	0.3138939
20.18	0.3143549
20.185	0.3145195
20.19	0.3144683
20.195	0.3143846
20.2	0.3141274
20.205	0.3141045
20.21	0.3146518
20.215	0.3155383
20.22	0.3169401
20.225	0.3183522
20.23	0.3197489
20.235	0.3209482
20.24	0.3221124
20.245	0.32295
20.25	0.3237899
20.255	0.3246508
20.26	0.3255104
20.265	0.3265645
20.27	0.3275986
20.275	0.3278943
20.28	0.3280744
20.285	0.3273835
20.29	0.3267284
20.295	0.3260814
20.3	0.3254953
20.305	0.3249496
20.31	0.3244066
20.315	0.3238317
20.32	0.3231672
20.325	0.3225174
20.33	0.3220227
20.335	0.3213494
20.34	0.3206508
20.345	0.3199542
20.35	0.3193278
20.355	0.3190579
20.36	0.3192613
20.365	0.3188946
20.37	0.3189781
20.375	0.318108
20.38	0.3173706
20.385	0.3166826
20.39	0.3161944
20.395	0.3158393
20.4	0.3155142
20.405	0.3154705
20.41	0.3153433
20.415	0.3141184
20.42	0.3125677
20.425	0.309922
20.43	0.3072467
20.435	0.304573
20.44	0.3018852
20.445	0.2995447
20.45	0.2974916
20.455	0.2958376
20.46	0.2943649
20.465	0.2929374
20.47	0.2915263
20.475	0.2901502
20.48	0.2891774
20.485	0.2882932
20.49	0.2879008
20.495	0.2874243
20.5	0.2869426
20.505	0.2863563
20.51	0.2857924
20.515	0.2852187
20.52	0.2845863
20.525	0.2837455
20.53	0.2829422
20.535	0.2816514
20.54	0.2806162
20.545	0.2795943
20.55	0.2785568
20.555	0.2774833
20.56	0.2764082
20.565	0.2753399
20.57	0.2747313
20.575	0.2741483
20.58	0.2744283
20.585	0.2747298
20.59	0.2752297
20.595	0.2758779
20.6	0.2765211
20.605	0.2771525
20.61	0.2773389
20.615	0.2770446
20.62	0.2770167
20.625	0.2767013
20.63	0.2769893
20.635	0.2773525
20.64	0.2776966
20.645	0.2780806
20.65	0.2776973
20.655	0.2770887
20.66	0.2756111
20.665	0.273727
20.67	0.2721251
20.675	0.2703733
20.68	0.2686061
20.685	0.2668702
20.69	0.2651997
20.695	0.2635092
20.7	0.2618962
20.705	0.2602791
20.71	0.2587106
20.715	0.2578343
20.72	0.2569838
20.725	0.2567842
20.73	0.2568481
20.735	0.2568263
20.74	0.2569102
20.745	0.2567501
20.75	0.2565882
20.755	0.2564788
20.76	0.2565827
20.765	0.2567069
20.77	0.2568957
20.775	0.2571721
20.78	0.257401
20.785	0.2568137
20.79	0.2562552
20.795	0.2552751
20.8	0.2540165
20.805	0.2527579
20.81	0.2515009
20.815	0.2505079
20.82	0.2499268
20.825	0.2496414
20.83	0.2496592
20.835	0.2497045
20.84	0.2496969
20.845	0.249678
20.85	0.2498535
20.855	0.250503
20.86	0.2513882
20.865	0.2527506
20.87	0.2542964
20.875	0.2550171
20.88	0.2558253
20.885	0.2569849
20.89	0.2581199
20.895	0.2595017
20.9	0.2609611
20.905	0.262335
20.91	0.2639657
20.915	0.265562
20.92	0.2657579
20.925	0.2658738
20.93	0.2648886
20.935	0.2637548
20.94	0.2628366
20.945	0.2620469
20.95	0.2613747
20.955	0.260704
20.96	0.2599283
20.965	0.2587675
20.97	0.2576848
20.975	0.2565284
20.98	0.2554701
20.985	0.2543876
20.99	0.2539313
20.995	0.253416
21	0.2531194
21.005	0.2529404
21.01	0.2528163
21.015	0.2526775
21.02	0.2526097
21.025	0.2525364
21.03	0.2524847
21.035	0.2523715
21.04	0.2522337
21.045	0.2520113
21.05	0.2519736
21.055	0.2515981
21.06	0.2512578
21.065	0.2507242
21.07	0.2500874
21.075	0.2495274
21.08	0.2494015
21.085	0.2492709
21.09	0.2484334
21.095	0.2476584
21.1	0.2461406
21.105	0.2444839
21.11	0.2428486
21.115	0.2406063
21.12	0.2385263
21.125	0.2371697
21.13	0.2359657
21.135	0.2352856
21.14	0.2346749
21.145	0.2337241
21.15	0.2328249
21.155	0.2319338
21.16	0.2312963
21.165	0.2312385
21.17	0.2319337
21.175	0.2327895
21.18	0.2336139
21.185	0.2341206
21.19	0.2346717
21.195	0.2348475
21.2	0.2350418
21.205	0.2352726
21.21	0.2357276
21.215	0.2361582
21.22	0.2367519
21.225	0.2371167
21.23	0.2375183
21.235	0.2378917
21.24	0.2382515
21.245	0.2386172
21.25	0.2392636
21.255	0.239682
21.26	0.2407516
21.265	0.2417716
21.27	0.242865
21.275	0.2439933
21.28	0.2449908
21.285	0.2460287
21.29	0.2470668
21.295	0.2484494
21.3	0.2504846
21.305	0.2528887
21.31	0.2560335
21.315	0.2593838
21.32	0.2629689
21.325	0.2662335
21.33	0.2695066
21.335	0.2725457
21.34	0.2758436
21.345	0.2792951
21.35	0.2831139
21.355	0.2869935
21.36	0.290805
21.365	0.2941551
21.37	0.2966555
21.375	0.2983009
21.38	0.2993928
21.385	0.3005328
21.39	0.3019773
21.395	0.3034276
21.4	0.3051057
21.405	0.306778
21.41	0.3083653
21.415	0.3096298
21.42	0.31078
21.425	0.3116953
21.43	0.3127161
21.435	0.3136086
21.44	0.3145201
21.445	0.31546
21.45	0.3165812
21.455	0.3173443
21.46	0.3181268
21.465	0.3181868
21.47	0.3180978
21.475	0.3179896
21.48	0.3179714
21.485	0.3180087
21.49	0.3180659
21.495	0.3182737
21.5	0.3184737
21.505	0.3176923
21.51	0.316969
21.515	0.3150721
21.52	0.3128047
21.525	0.3107008
21.53	0.3087314
21.535	0.3069282
21.54	0.3051981
21.545	0.3031057
21.55	0.3008241
21.555	0.2980288
21.56	0.2950065
21.565	0.2920835
21.57	0.2893444
21.575	0.2871895
21.58	0.285501
21.585	0.2841502
21.59	0.2827661
21.595	0.2810422
21.6	0.2792498
21.605	0.2773079
21.61	0.2753639
21.615	0.2735373
21.62	0.2718867
21.625	0.2703208
21.63	0.2689734
21.635	0.2675989
21.64	0.2663302
21.645	0.2650778
21.65	0.2638475
21.655	0.2622604
21.66	0.2609179
21.665	0.2594931
21.67	0.2585577
21.675	0.2579896
21.68	0.2574854
21.685	0.2568682
21.69	0.2562269
21.695	0.255458
21.7	0.254346
21.705	0.2532462
21.71	0.2525055
21.715	0.2516893
21.72	0.2518171
21.725	0.252102
21.73	0.2519399
21.735	0.2516576
21.74	0.2509059
21.745	0.2501566
21.75	0.2495006
21.755	0.2486728
21.76	0.2481186
21.765	0.2474568
21.77	0.2465098
21.775	0.245663
21.78	0.2443751
21.785	0.2430697
21.79	0.2418295
21.795	0.2406041
21.8	0.2395209
21.805	0.2385589
21.81	0.2375645
21.815	0.2365776
21.82	0.2354423
21.825	0.234293
21.83	0.2331482
21.835	0.2319259
21.84	0.2308042
21.845	0.2297437
21.85	0.2285409
21.855	0.2273647
21.86	0.2262283
21.865	0.2250948
21.87	0.2240451
21.875	0.2229866
21.88	0.2213781
21.885	0.2196941
21.89	0.2179658
21.895	0.216245
21.9	0.2145787
21.905	0.2130431
21.91	0.2116685
21.915	0.2104033
21.92	0.2092465
21.925	0.2075934
21.93	0.2060102
21.935	0.2047182
21.94	0.2036168
21.945	0.20276
21.95	0.2019492
21.955	0.2011821
21.96	0.2005812
21.965	0.2000018
21.97	0.1996387
21.975	0.1995693
21.98	0.1993176
21.985	0.1994351
21.99	0.1993726
21.995	0.1991504
22	0.1988868
22.005	0.1986258
22.01	0.1981605
22.015	0.1978577
22.02	0.1976091
22.025	0.1973499
22.03	0.1973585
22.035	0.1973954
22.04	0.1973707
22.045	0.1971189
22.05	0.1967412
22.055	0.1964317
22.06	0.1960712
22.065	0.1958438
22.07	0.1956229
22.075	0.1954257
22.08	0.1950339
22.085	0.1949985
22.09	0.1949642
22.095	0.1951014
22.1	0.1952947
22.105	0.1955681
22.11	0.1959546
22.115	0.1959479
22.12	0.1960692
22.125	0.1961506
22.13	0.1965315
22.135	0.1973436
22.14	0.1981142
22.145	0.1986589
22.15	0.1992665
22.155	0.1997771
22.16	0.2003178
22.165	0.2011554
22.17	0.2019964
22.175	0.2030343
22.18	0.2038193
22.185	0.2045834
22.19	0.205251
22.195	0.2060209
22.2	0.2068559
22.205	0.2077188
22.21	0.2086377
22.215	0.2101067
22.22	0.2114679
22.225	0.2128273
22.23	0.2142395
22.235	0.2151128
22.24	0.2158689
22.245	0.2165208
22.25	0.2174722
22.255	0.2185519
22.26	0.2201323
22.265	0.2217775
22.27	0.2234773
22.275	0.2250374
22.28	0.226585
22.285	0.2282244
22.29	0.229859
22.295	0.2315059
22.3	0.2330266
22.305	0.2344291
22.31	0.2357514
22.315	0.2369465
22.32	0.2382935
22.325	0.2396392
22.33	0.2406955
22.335	0.2417046
22.34	0.2419548
22.345	0.2422007
22.35	0.2425344
22.355	0.2428276
22.36	0.2431562
22.365	0.2434898
22.37	0.2435817
22.375	0.2436788
22.38	0.2436159
22.385	0.2437305
22.39	0.2439056
22.395	0.243997
22.4	0.2440951
22.405	0.2441957
22.41	0.244286
22.415	0.2444459
22.42	0.2438174
22.425	0.2433585
22.43	0.2426563
22.435	0.2419555
22.44	0.2415103
22.445	0.2411326
22.45	0.240839
22.455	0.2401615
22.46	0.2395668
22.465	0.2381267
22.47	0.2368875
22.475	0.235519
22.48	0.234211
22.485	0.2328897
22.49	0.2315877
22.495	0.2302244
22.5	0.2288898
22.505	0.227537
22.51	0.2264777
22.515	0.2253984
22.52	0.2244175
22.525	0.2234406
22.53	0.2223297
22.535	0.2214892
22.54	0.2207286
22.545	0.2203406
22.55	0.2199736
22.555	0.2196107
22.56	0.2193188
22.565	0.219014
22.57	0.2187544
22.575	0.2183377
22.58	0.2178821
22.585	0.2172027
22.59	0.2163986
22.595	0.2155821
22.6	0.2148424
22.605	0.2141053
22.61	0.2133447
22.615	0.2125834
22.62	0.2114736
22.625	0.2108152
22.63	0.2097675
22.635	0.2089324
22.64	0.2081258
22.645	0.2073021
22.65	0.2065296
22.655	0.2059156
22.66	0.2056698
22.665	0.204979
22.67	0.204718
22.675	0.2037828
22.68	0.2029464
22.685	0.2021353
22.69	0.2013298
22.695	0.2004779
22.7	0.1995914
22.705	0.1986611
22.71	0.1977831
22.715	0.1963975
22.72	0.1950596
22.725	0.1936849
22.73	0.1923023
22.735	0.1911239
22.74	0.190019
22.745	0.1887106
22.75	0.1874307
22.755	0.1862241
22.76	0.1850124
22.765	0.1837278
22.77	0.1824602
22.775	0.181064
22.78	0.1799012
22.785	0.178795
22.79	0.1780465
22.795	0.1772934
22.8	0.1765608
22.805	0.1758402
22.81	0.1751316
22.815	0.1744394
22.82	0.1737557
22.825	0.1733422
22.83	0.1729511
22.835	0.172812
22.84	0.1726473
22.845	0.1724092
22.85	0.1721676
22.855	0.171789
22.86	0.1710908
22.865	0.1700648
22.87	0.1690629
22.875	0.1681668
22.88	0.1676405
22.885	0.1669571
22.89	0.1662672
22.895	0.1655965
22.9	0.1649449
22.905	0.164383
22.91	0.1637461
22.915	0.1630988
22.92	0.1626865
22.925	0.1622296
22.93	0.1616739
22.935	0.1610917
22.94	0.1603021
22.945	0.159181
22.95	0.1581795
22.955	0.157164
22.96	0.1559037
22.965	0.1547691
22.97	0.1535458
22.975	0.1526014
22.98	0.1517953
22.985	0.1511084
22.99	0.1505074
22.995	0.1497241	#1 JL BL2 
23	0.1490906
23.005	0.1484189
23.01	0.147786
23.015	0.1472448
23.02	0.1467044
23.025	0.1461468
23.03	0.1456968
23.035	0.1452167
23.04	0.1447779
23.045	0.144316
23.05	0.1439321
23.055	0.1437711
23.06	0.1437442
23.065	0.1441072
23.07	0.1446873
23.075	0.1455474
23.08	0.1462869
23.085	0.1472629
23.09	0.1483426
23.095	0.1493961
23.1	0.1503831
23.105	0.1514522
23.11	0.1524382
23.115	0.1534549
23.12	0.1544941
23.125	0.1557034
23.13	0.1570659
23.135	0.1585177
23.14	0.1600916
23.145	0.1616478
23.15	0.1633901
23.155	0.1652553
23.16	0.1671258
23.165	0.1692099
23.17	0.1710299
23.175	0.1729444
23.18	0.1743663
23.185	0.1756591
23.19	0.1766928
23.195	0.1774436
23.2	0.178186
23.205	0.178799
23.21	0.179478
23.215	0.1801546
23.22	0.1806526
23.225	0.1811397
23.23	0.1816841
23.235	0.1820706
23.24	0.1824832
23.245	0.18287
23.25	0.1832864
23.255	0.1836225
23.26	0.1836561
23.265	0.1835836
23.27	0.1831826
23.275	0.1827456
23.28	0.1823134
23.285	0.1818548
23.29	0.18112
23.295	0.1803997
23.3	0.1796991
23.305	0.1790158
23.31	0.17819
23.315	0.1774215
23.32	0.1767995
23.325	0.1762013
23.33	0.1753411
23.335	0.1742355
23.34	0.1730992
23.345	0.1717762
23.35	0.1705085
23.355	0.1691645
23.36	0.1675483
23.365	0.1659212
23.37	0.1640421
23.375	0.162279
23.38	0.1604105
23.385	0.1587592
23.39	0.1572021
23.395	0.155826
23.4	0.1546641
23.405	0.1535174
23.41	0.1523857
23.415	0.1511066
23.42	0.1496847
23.425	0.1483466
23.43	0.1470852
23.435	0.1457764
23.44	0.1445156
23.445	0.1431515
23.45	0.1418673
23.455	0.1405529
23.46	0.1392782
23.465	0.1381273
23.47	0.137086
23.475	0.1362813
23.48	0.1354867
23.485	0.1354222
23.49	0.1355139
23.495	0.1361176
23.5	0.1367964
23.505	0.1374379
23.51	0.1380815
23.515	0.1388338
23.52	0.1395378
23.525	0.1399515
23.53	0.1402677
23.535	0.140724
23.54	0.1413151
23.545	0.1419216
23.55	0.142577
23.555	0.143271
23.56	0.1440723
23.565	0.1450278
23.57	0.1459427
23.575	0.1470003
23.58	0.1479647
23.585	0.1489755
23.59	0.1499138
23.595	0.1507492
23.6	0.151531
23.605	0.1523093
23.61	0.1531442
23.615	0.1541328
23.62	0.1552161
23.625	0.156469
23.63	0.1579121
23.635	0.159225
23.64	0.1604841
23.645	0.1617617
23.65	0.1632397
23.655	0.1645311
23.66	0.1659159
23.665	0.1673412
23.67	0.1688385
23.675	0.1702874
23.68	0.1716722
23.685	0.1731163
23.69	0.1740643
23.695	0.1749844
23.7	0.1757128
23.705	0.1763235
23.71	0.1769302
23.715	0.1775359
23.72	0.1781173
23.725	0.1786923
23.73	0.1793666
23.735	0.1800219
23.74	0.1806935
23.745	0.1813832
23.75	0.1820287
23.755	0.1827019
23.76	0.1833689
23.765	0.1839808
23.77	0.1846868
23.775	0.1854096
23.78	0.1861578
23.785	0.1870685
23.79	0.1879663
23.795	0.1888991
23.8	0.1898792
23.805	0.1908816
23.81	0.191821
23.815	0.1928354
23.82	0.1936436
23.825	0.1945447
23.83	0.19532
23.835	0.1958703
23.84	0.1964424
23.845	0.196984
23.85	0.1975238
23.855	0.1978001
23.86	0.1982523
23.865	0.1985252
23.87	0.1987952
23.875	0.1990018
23.88	0.1992598
23.885	0.199587
23.89	0.199812
23.895	0.1995308
23.9	0.1991656
23.905	0.1987893
23.91	0.1985141
23.915	0.1982564
23.92	0.1981056
23.925	0.197947
23.93	0.1978294
23.935	0.197703
23.94	0.1976138
23.945	0.197607
23.95	0.1975775
23.955	0.1975878
23.96	0.1976542
23.965	0.1976443
23.97	0.1975957
23.975	0.1973387
23.98	0.1970696
23.985	0.1967013
23.99	0.1961225
23.995	0.1955424
24	0.194977
24.005	0.1944557
24.01	0.1938446
24.015	0.1933073
24.02	0.1925009
24.025	0.1918873
24.03	0.1910705
24.035	0.190467
24.04	0.189994
24.045	0.1895326
24.05	0.189216
24.055	0.1889805
24.06	0.1888859
24.065	0.1885811
24.07	0.1883733
24.075	0.1880417
24.08	0.1877085
24.085	0.187254
24.09	0.1867122
24.095	0.186274
24.1	0.1861353
24.105	0.1861427
24.11	0.1857545
24.115	0.1851963
24.12	0.1846058
24.125	0.1837978
24.13	0.1830858
24.135	0.1823132
24.14	0.1817732
24.145	0.181356
24.15	0.1808921
24.155	0.1804393
24.16	0.1800198
24.165	0.1795768
24.17	0.179203
24.175	0.1789194
24.18	0.1789806
24.185	0.1790418
24.19	0.1792359
24.195	0.1795413
24.2	0.1798587
24.205	0.1801644
24.21	0.1803323
24.215	0.180744
24.22	0.1809986
24.225	0.1814428
24.23	0.1817875
24.235	0.1821477
24.24	0.182215
24.245	0.1820461
24.25	0.1818808
24.255	0.1815039
24.26	0.1809712
24.265	0.180427
24.27	0.1799892
24.275	0.1795547
24.28	0.1792016
24.285	0.1789888
24.29	0.1788475
24.295	0.1790037
24.3	0.1790385
24.305	0.1794595
24.31	0.1796574
24.315	0.1802721
24.32	0.1809709
24.325	0.1817617
24.33	0.1826349
24.335	0.1833645
24.34	0.1841294
24.345	0.1845696
24.35	0.1848753
24.355	0.1850396
24.36	0.1852298
24.365	0.1853603
24.37	0.1853245
24.375	0.1854463
24.38	0.1856905
24.385	0.1856605
24.39	0.1858003
24.395	0.1858242
24.4	0.1858314
24.405	0.1858474
24.41	0.1858583
24.415	0.1859678
24.42	0.1857372
24.425	0.1858148
24.43	0.1859586
24.435	0.1860884
24.44	0.1863223
24.445	0.1865995
24.45	0.1870604
24.455	0.1876984
24.46	0.1884299
24.465	0.1891888
24.47	0.1899498
24.475	0.1909306
24.48	0.1919089
24.485	0.1929028
24.49	0.1937122
24.495	0.1945472
24.5	0.1949165
24.505	0.1953222
24.51	0.1956845
24.515	0.1963078
24.52	0.1971779
24.525	0.1981084
24.53	0.1989176
24.535	0.1997619
24.54	0.2006269
24.545	0.2015149
24.55	0.2023685
24.555	0.2032075
24.56	0.2041103
24.565	0.2049619
24.57	0.2059857
24.575	0.2071596
24.58	0.2084647
24.585	0.2095082
24.59	0.210829
24.595	0.2118522
24.6	0.2131113
24.605	0.214367
24.61	0.2156132
24.615	0.2169295
24.62	0.2181913
24.625	0.2196466
24.63	0.2207804
24.635	0.2220079
24.64	0.223307
24.645	0.2245573
24.65	0.225967
24.655	0.2273423
24.66	0.2284034
24.665	0.2294589
24.67	0.230716
24.675	0.2320401
24.68	0.2330271
24.685	0.2341028
24.69	0.2352501
24.695	0.2364294
24.7	0.2375618
24.705	0.2389583
24.71	0.2405255
24.715	0.2419579
24.72	0.2431342
24.725	0.2438572
24.73	0.2446114
24.735	0.2458862
24.74	0.2473829
24.745	0.2493484
24.75	0.2512307
24.755	0.2531942
24.76	0.2551526
24.765	0.2571109
24.77	0.2590666
24.775	0.2607752
24.78	0.2625388
24.785	0.2644856
24.79	0.2665096
24.795	0.2684522
24.8	0.2705068
24.805	0.2722806
24.81	0.274075
24.815	0.275882
24.82	0.2775657
24.825	0.2793229
24.83	0.2809786
24.835	0.2828233
24.84	0.2843457
24.845	0.286363
24.85	0.2883771
24.855	0.2902373
24.86	0.2920869
24.865	0.2942893
24.87	0.2965387
24.875	0.2985526
24.88	0.3004769
24.885	0.30247
24.89	0.3043035
24.895	0.306005
24.9	0.3077257
24.905	0.3095562
24.91	0.3112712
24.915	0.3131486
24.92	0.3151627
24.925	0.3173071
24.93	0.3202161
24.935	0.3229559
24.94	0.3255903
24.945	0.3279252
24.95	0.329639
24.955	0.3316951
24.96	0.3339638
24.965	0.3363403
24.97	0.3389463
24.975	0.3417303
24.98	0.3445441
24.985	0.3471544
24.99	0.3488737
24.995	0.3525273
25	0.355898
25.005	0.3607611
25.01	0.36563
25.015	0.3704031
25.02	0.3756815
25.025	0.3813527
25.03	0.3877422
25.035	0.3945202
25.04	0.401065
25.045	0.4076197
25.05	0.4140857
25.055	0.4204628
25.06	0.4284952
25.065	0.4365135
25.07	0.4442469
25.075	0.4517761
25.08	0.4594738
25.085	0.467499
25.09	0.4758652
25.095	0.4856042
25.1	0.4954302
25.105	0.5069064
25.11	0.5182282
25.115	0.5294124
25.12	0.5399434
25.125	0.5499857
25.13	0.5600352
25.135	0.5691652
25.14	0.5782419
25.145	0.5869705
25.15	0.5956299
25.155	0.6043414
25.16	0.6126091
25.165	0.6205674
25.17	0.6282809
25.175	0.6356603
25.18	0.6428284
25.185	0.6499317
25.19	0.6570264
25.195	0.6643099
25.2	0.6694767
25.205	0.6746582
25.21	0.678179
25.215	0.6817163
25.22	0.685251
25.225	0.6881027
25.23	0.6904738
25.235	0.6918617
25.24	0.6928023
25.245	0.693756
25.25	0.6947172
25.255	0.6949484
25.26	0.695164
25.265	0.6932875
25.27	0.6912418
25.275	0.6890592
25.28	0.6869455
25.285	0.6844819
25.29	0.6814777
25.295	0.6778224
25.3	0.6720348
25.305	0.6658218
25.31	0.6567037
25.315	0.6471528
25.32	0.637318
25.325	0.6275526
25.33	0.6178445
25.335	0.6075649
25.34	0.5974889
25.345	0.5871569
25.35	0.576408
25.355	0.5653726
25.36	0.553988
25.365	0.5425094
25.37	0.5308365
25.375	0.5190126
25.38	0.5070689
25.385	0.4947627
25.39	0.4821411
25.395	0.4691503
25.4	0.4558831
25.405	0.4437405
25.41	0.4312901
25.415	0.4197642
25.42	0.4078113
25.425	0.3954748
25.43	0.3833574
25.435	0.3712864
25.44	0.3597834
25.445	0.3481093
25.45	0.3360609
25.455	0.3235588
25.46	0.311655
25.465	0.2993162
25.47	0.2888747
25.475	0.2782595
25.48	0.2675979
25.485	0.2561983
25.49	0.244775
25.495	0.2331993
25.5	0.2219893
25.505	0.2135218
25.51	0.2053319
25.515	0.2015229
25.52	0.1982005
25.525	0.195071
25.53	0.1918686
25.535	0.1883652
25.54	0.1859511
25.545	0.1835834
25.55	0.1814707
25.555	0.1801779
25.56	0.1793577
25.565	0.1788321
25.57	0.1787338
25.575	0.1787406
25.58	0.1787007
25.585	0.1784957
25.59	0.1786463
25.595	0.1788231
25.6	0.1790316
25.605	0.1790316
25.61	0.1790033
25.615	0.1792062
25.62	0.1794487
25.625	0.1800299
25.63	0.1806034
25.635	0.1811559
25.64	0.1817081
25.645	0.1822274
25.65	0.1831065
25.655	0.1839971
25.66	0.1849887
25.665	0.1859096
25.67	0.1867325
25.675	0.1876726
25.68	0.1885689
25.685	0.1892582
25.69	0.190175
25.695	0.1910964
25.7	0.1923396
25.705	0.1937579
25.71	0.1951394
25.715	0.1965415
25.72	0.1978937
25.725	0.1992435
25.73	0.200595
25.735	0.2019648
25.74	0.2035163
25.745	0.2043985
25.75	0.2050836
25.755	0.2054939
25.76	0.2059494
25.765	0.2059767
25.77	0.2060047
25.775	0.2053788
25.78	0.2047524
25.785	0.2042003
25.79	0.2037474
25.795	0.2032901
25.8	0.2027836
25.805	0.2022575
25.81	0.2017397
25.815	0.2012797
25.82	0.2003512
25.825	0.1994193
25.83	0.1981587
25.835	0.1969329
25.84	0.1958493
25.845	0.1947308
25.85	0.1936486
25.855	0.1924426
25.86	0.1912354
25.865	0.1897731
25.87	0.1883626
25.875	0.1870305
25.88	0.1856691
25.885	0.1843339
25.89	0.1831238
25.895	0.1818648
25.9	0.1805802
25.905	0.1793813
25.91	0.1778173
25.915	0.1763089
25.92	0.1750806
25.925	0.1739374
25.93	0.1728014
25.935	0.1718187
25.94	0.1707447
25.945	0.1697707
25.95	0.1689533
25.955	0.168254
25.96	0.1678228
25.965	0.1676175
25.97	0.1678978
25.975	0.168127
25.98	0.1690255
25.985	0.1699114
25.99	0.1707043
25.995	0.1716103
26	0.1723683
26.005	0.1731419
26.01	0.1740414
26.015	0.1749536
26.02	0.1759352
26.025	0.1773068
26.03	0.1786614
26.035	0.1800638
26.04	0.1814948
26.045	0.1826202
26.05	0.1838174
26.055	0.1849499
26.06	0.1861429
26.065	0.187602
26.07	0.1892681
26.075	0.1912926
26.08	0.1932837
26.085	0.195352
26.09	0.1973631
26.095	0.1993048
26.1	0.2012321
26.105	0.2031411
26.11	0.2048402
26.115	0.2067084
26.12	0.2085182
26.125	0.2097843
26.13	0.2109491
26.135	0.2120914
26.14	0.2129241
26.145	0.2137536
26.15	0.21421
26.155	0.2148667
26.16	0.2155263
26.165	0.2161553
26.17	0.2164937
26.175	0.2164654
26.18	0.2164531
26.185	0.2160204
26.19	0.2156325
26.195	0.2151659
26.2	0.2145351
26.205	0.214131
26.21	0.2137286
26.215	0.2131714
26.22	0.2126403
26.225	0.2120258
26.23	0.2112916
26.235	0.2105508
26.24	0.2098461
26.245	0.20925
26.25	0.208826
26.255	0.208502
26.26	0.2082449
26.265	0.2079715
26.27	0.2071599
26.275	0.2062347
26.28	0.2046352
26.285	0.2029676
26.29	0.2011525
26.295	0.1994237
26.3	0.1977885
26.305	0.1962837
26.31	0.1947946
26.315	0.1934081
26.32	0.1920102
26.325	0.1906813
26.33	0.189617
26.335	0.1886366
26.34	0.1877883
26.345	0.1873783
26.35	0.1871387
26.355	0.1874214
26.36	0.187902
26.365	0.1883765
26.37	0.1886667
26.375	0.1891873
26.38	0.1901981
26.385	0.191263
26.39	0.1927693
26.395	0.19421
26.4	0.1957954
26.405	0.1975323
26.41	0.1989098
26.415	0.2002843
26.42	0.2016944
26.425	0.2030963
26.43	0.2045089
26.435	0.2059862
26.44	0.2074712
26.445	0.2090407
26.45	0.2101746
26.455	0.2112937
26.46	0.2120371
26.465	0.2127007
26.47	0.2135922
26.475	0.2147459
26.48	0.2159537
26.485	0.2176128
26.49	0.2194354
26.495	0.2212777
26.5	0.2229572
26.505	0.2246785
26.51	0.2271778
26.515	0.2300075
26.52	0.2335437
26.525	0.2369007
26.53	0.2400848
26.535	0.2432033
26.54	0.2462238
26.545	0.2492333
26.55	0.2520973
26.555	0.2548737
26.56	0.2575458
26.565	0.2597712
26.57	0.261966
26.575	0.2643412
26.58	0.2665852
26.585	0.268671
26.59	0.2706717
26.595	0.2730521
26.6	0.2754647
26.605	0.2778181
26.61	0.2800783
26.615	0.2824517
26.62	0.2847999
26.625	0.2872062
26.63	0.2896401
26.635	0.2920314
26.64	0.2944057
26.645	0.2968286
26.65	0.2991435
26.655	0.3016321
26.66	0.3040227
26.665	0.3065679
26.67	0.3091938
26.675	0.3114886
26.68	0.313835
26.685	0.3161393
26.69	0.3182505
26.695	0.3201836
26.7	0.3222295
26.705	0.3243144
26.71	0.3263107
26.715	0.3269954
26.72	0.3272106
26.725	0.3263961
26.73	0.3256571
26.735	0.324983
26.74	0.3243755
26.745	0.3238602
26.75	0.3230812
26.755	0.3220171
26.76	0.3208137
26.765	0.3192787
26.77	0.3178663
26.775	0.3164559
26.78	0.3151461
26.785	0.313849
26.79	0.312559
26.795	0.3112953
26.8	0.3089407
26.805	0.306482
26.81	0.3039526
26.815	0.3013598
26.82	0.2989091
26.825	0.2964476
26.83	0.2941464
26.835	0.2917534
26.84	0.2893786
26.845	0.2869698
26.85	0.2843774
26.855	0.2819801
26.86	0.2797818
26.865	0.2778639
26.87	0.2760188
26.875	0.2739663
26.88	0.272077
26.885	0.2700141
26.89	0.2679802
26.895	0.266351
26.9	0.2648162
26.905	0.2633825
26.91	0.2619836
26.915	0.2603564
26.92	0.2595401
26.925	0.2589193
26.93	0.2591134
26.935	0.2593346
26.94	0.2598238
26.945	0.2602904
26.95	0.2605671
26.955	0.2610487
26.96	0.2618276
26.965	0.262778
26.97	0.2639868
26.975	0.2652615
26.98	0.2665385
26.985	0.2672284
26.99	0.267954
26.995	0.2682939
27	0.2686316
27.005	0.2696764
27.01	0.2707738
27.015	0.2719148
27.02	0.2731032
27.025	0.2738571
27.03	0.2746118
27.035	0.2747818
27.04	0.275035
27.045	0.2752662
27.05	0.2755966
27.055	0.2760088
27.06	0.2760822
27.065	0.2756735
27.07	0.2747928
27.075	0.2737103
27.08	0.2731429
27.085	0.272617
27.09	0.2724417
27.095	0.2721659
27.1	0.2711539
27.105	0.2700867
27.11	0.2683727
27.115	0.2665593
27.12	0.2653294
27.125	0.2640959
27.13	0.2634107
27.135	0.2623464
27.14	0.261173
27.145	0.2594267
27.15	0.2576807
27.155	0.2561215
27.16	0.2546746
27.165	0.2533118
27.17	0.251834
27.175	0.250368
27.18	0.2489101
27.185	0.2475263
27.19	0.2465078
27.195	0.2454936
27.2	0.2448105
27.205	0.2441526
27.21	0.2434934
27.215	0.2428421
27.22	0.2421947
27.225	0.2415611
27.23	0.2412265
27.235	0.2408818
27.24	0.2409096
27.245	0.2408399
27.25	0.2408244
27.255	0.2405609
27.26	0.2403069
27.265	0.2402449
27.27	0.2404941
27.275	0.2409988
27.28	0.2415515
27.285	0.2411821
27.29	0.2407171
27.295	0.2396387
27.3	0.2386309
27.305	0.2382222
27.31	0.2378526
27.315	0.2379995
27.32	0.2382619
27.325	0.2376438
27.33	0.2370476
27.335	0.2353383
27.34	0.2337882
27.345	0.2323648
27.35	0.231243
27.355	0.2299074
27.36	0.2285237
27.365	0.2268957
27.37	0.2251783
27.375	0.22353
27.38	0.2219031
27.385	0.220163
27.39	0.2182057
27.395	0.2163694
27.4	0.2144601
27.405	0.2127241
27.41	0.2110471
27.415	0.2093331
27.42	0.2077889
27.425	0.2062542
27.43	0.2048325
27.435	0.2033305
27.44	0.201808
27.445	0.2002717
27.45	0.1987761
27.455	0.197293
27.46	0.195995
27.465	0.1947475
27.47	0.1934698
27.475	0.1921138
27.48	0.1907697
27.485	0.1894648
27.49	0.1887793
27.495	0.1881609
27.5	0.1879432
27.505	0.1877466
27.51	0.187205
27.515	0.1866393
27.52	0.1859029
27.525	0.1849957
27.53	0.184648
27.535	0.1843067
27.54	0.1847153
27.545	0.1851942
27.55	0.185504
27.555	0.1859567
27.56	0.1865777
27.565	0.1870283
27.57	0.1875626
27.575	0.1879441
27.58	0.1883126
27.585	0.1887657
27.59	0.1894702
27.595	0.1902793
27.6	0.1909445
27.605	0.1918232
27.61	0.1923289
27.615	0.1927419
27.62	0.193178
27.625	0.1931947
27.63	0.1931935
27.635	0.1929883
27.64	0.1928472
27.645	0.192863
27.65	0.1930039
27.655	0.193055
27.66	0.1929201
27.665	0.1927344
27.67	0.1924023
27.675	0.1921035
27.68	0.1918491
27.685	0.1915723
27.69	0.1913345
27.695	0.1909922
27.7	0.1906307
27.705	0.1902685
27.71	0.1898811
27.715	0.1896715
27.72	0.1895063
27.725	0.1894122
27.73	0.1894101
27.735	0.1894079
27.74	0.1896404
27.745	0.1898864
27.75	0.1903476
27.755	0.1909806
27.76	0.1913455
27.765	0.1918055
27.77	0.1922356
27.775	0.1927529
27.78	0.193159
27.785	0.1935454
27.79	0.1936544
27.795	0.1935439
27.8	0.193672
27.805	0.1936142
27.81	0.1933957
27.815	0.1934014
27.82	0.1932103
27.825	0.1931249
27.83	0.1933061
27.835	0.1935138
27.84	0.193784
27.845	0.1939818
27.85	0.1939521
27.855	0.1937451
27.86	0.1936455
27.865	0.1936892
27.87	0.193752
27.875	0.1938992
27.88	0.1940936
27.885	0.1942791
27.89	0.1945785
27.895	0.1948273
27.9	0.1952232
27.905	0.1956289
27.91	0.1960783
27.915	0.1965233
27.92	0.1970287
27.925	0.1974738
27.93	0.1979252
27.935	0.1983568
27.94	0.1987983
27.945	0.1987779
27.95	0.1986782
27.955	0.1981175
27.96	0.1974325
27.965	0.1968965
27.97	0.1962855
27.975	0.1957468
27.98	0.1951479
27.985	0.1947745
27.99	0.1944449
27.995	0.1945386
28	0.1945914
28.005	0.1943034
28.01	0.1941877
28.015	0.1938663
28.02	0.1934209
28.025	0.1932488
28.03	0.1928647
28.035	0.1923472
28.04	0.1918072
28.045	0.1911816
28.05	0.1906262
28.055	0.1901039
28.06	0.1895962
28.065	0.1890194
28.07	0.1883854
28.075	0.1877587
28.08	0.1871187
28.085	0.1863196
28.09	0.1856924
28.095	0.1848734
28.1	0.1842794
28.105	0.1835024
28.11	0.1827525
28.115	0.1818568
28.12	0.1809409
28.125	0.1798413
28.13	0.1788088
28.135	0.1777925
28.14	0.1768533
28.145	0.1758874
28.15	0.1752207
28.155	0.1746562
28.16	0.1743628
28.165	0.17411
28.17	0.1738844
28.175	0.1735792
28.18	0.1735173
28.185	0.1734623
28.19	0.1733348
28.195	0.1731761
28.2	0.1724285
28.205	0.1717108
28.21	0.1710453
28.215	0.1704381
28.22	0.1700373
28.225	0.1697022
28.23	0.1691473
28.235	0.1687113
28.24	0.1683667
28.245	0.1679078
28.25	0.1675635
28.255	0.1672517
28.26	0.1670105
28.265	0.1670202
28.27	0.1671717
28.275	0.1673094
28.28	0.1674634
28.285	0.1676239
28.29	0.1678823
28.295	0.1677373
28.3	0.1676459
28.305	0.1671286
28.31	0.1667032
28.315	0.1662128
28.32	0.1658176
28.325	0.1655873
28.33	0.1654948
28.335	0.1654258
28.34	0.1653479
28.345	0.1651152
28.35	0.1649281
28.355	0.1646712
28.36	0.164347
28.365	0.1640338
28.37	0.1636686
28.375	0.1631805
28.38	0.1627881
28.385	0.1619502
28.39	0.1610823
28.395	0.1602965
28.4	0.1594841
28.405	0.1590804
28.41	0.1587951
28.415	0.158527
28.42	0.158135
28.425	0.1578511
28.43	0.1577982
28.435	0.1578715
28.44	0.1579429
28.445	0.1579968
28.45	0.1581665
28.455	0.1582877
28.46	0.1582667
28.465	0.1582066
28.47	0.157723
28.475	0.1570378
28.48	0.1563629
28.485	0.1557893
28.49	0.1552131
28.495	0.1548823
28.5	0.1547706
28.505	0.1546973
28.51	0.1548332
28.515	0.1550153
28.52	0.1552363
28.525	0.1554858
28.53	0.155508
28.535	0.1554612
28.54	0.1552841
28.545	0.1550979
28.55	0.1550014
28.555	0.1548442
28.56	0.1547092
28.565	0.1544681
28.57	0.1542435
28.575	0.1540721
28.58	0.1539956
28.585	0.1539685
28.59	0.1545302
28.595	0.1551365
28.6	0.1558598
28.605	0.1567045
28.61	0.1573261
28.615	0.1578356
28.62	0.158431
28.625	0.1591322
28.63	0.1596442
28.635	0.1598645
28.64	0.1600588
28.645	0.1603412
28.65	0.1606365
28.655	0.1609076
28.66	0.161248
28.665	0.161631
28.67	0.1620375
28.675	0.16269
28.68	0.1634217
28.685	0.1642173
28.69	0.1647521
28.695	0.1652853
28.7	0.1653683
28.705	0.1654907
28.71	0.1656251
28.715	0.1658219
28.72	0.1659476
28.725	0.1660601
28.73	0.1661675
28.735	0.1664165
28.74	0.1666864
28.745	0.1670285
28.75	0.1674336
28.755	0.1680005
28.76	0.1685743
28.765	0.1692076
28.77	0.1702484
28.775	0.1712619
28.78	0.17243
28.785	0.1735514
28.79	0.174542
28.795	0.1750538
28.8	0.1756206
28.805	0.1758514
28.81	0.1758685
28.815	0.1759992
28.82	0.1761947
28.825	0.1763538
28.83	0.1764608
28.835	0.1766279
28.84	0.1767256
28.845	0.1768543
28.85	0.1776652
28.855	0.1784658
28.86	0.1797632
28.865	0.1809829
28.87	0.1822767
28.875	0.1835698
28.88	0.1847422
28.885	0.1859411
28.89	0.1873476
28.895	0.1889169
28.9	0.1908354
28.905	0.192913
28.91	0.1949276
28.915	0.1969477
28.92	0.1988623
28.925	0.2007645
28.93	0.2026643
28.935	0.2045947
28.94	0.2065702
28.945	0.2086202
28.95	0.2106841
28.955	0.2125942
28.96	0.2142444
28.965	0.2158926
28.97	0.2174938
28.975	0.2186535
28.98	0.2197726
28.985	0.2206548
28.99	0.2215638
28.995	0.2226498
29	0.2237499
29.005	0.2247292
29.01	0.2257789
29.015	0.2269984
29.02	0.2282016
29.025	0.2293775
29.03	0.2306463
29.035	0.2321199
29.04	0.233731
29.045	0.2354552
29.05	0.2371274
29.055	0.2375523
29.06	0.2379879
29.065	0.2376761
29.07	0.2374117
29.075	0.2372284
29.08	0.2370826
29.085	0.2371589
29.09	0.2371944
29.095	0.2367779
29.1	0.2362631
29.105	0.2351784
29.11	0.234116
29.115	0.2331147
29.12	0.2326426
29.125	0.2323119
29.13	0.2323112
29.135	0.2322935
29.14	0.2321308
29.145	0.2316586
29.15	0.2310427
29.155	0.2303342
29.16	0.229715
29.165	0.2292145
29.17	0.228718
29.175	0.2281713
29.18	0.2277465
29.185	0.2274026
29.19	0.2271367
29.195	0.2268628
29.2	0.2263983
29.205	0.2260349
29.21	0.2257224
29.215	0.2254809
29.22	0.225129
29.225	0.2248213
29.23	0.2245198
29.235	0.2240798
29.24	0.2232314
29.245	0.2221073
29.25	0.2209456
29.255	0.219826
29.26	0.219445
29.265	0.2190712
29.27	0.2191101
29.275	0.2191513
29.28	0.2189062
29.285	0.2185654
29.29	0.2180222
29.295	0.2175047
29.3	0.2172983
29.305	0.2171523
29.31	0.2173213
29.315	0.2175109
29.32	0.217578
29.325	0.2164217
29.33	0.2150211
29.335	0.2129228
29.34	0.2108116
29.345	0.2087437
29.35	0.2069217
29.355	0.2051536
29.36	0.2034743
29.365	0.2021004
29.37	0.2007694
29.375	0.1996072
29.38	0.1984826
29.385	0.1974222
29.39	0.1962539
29.395	0.1951024
29.4	0.1939774
29.405	0.192897
29.41	0.1921394
29.415	0.1914019
29.42	0.1906634
29.425	0.1898532
29.43	0.1889672
29.435	0.1880824
29.44	0.1871815
29.445	0.1865326
29.45	0.1860363
29.455	0.1857144
29.46	0.1853407
29.465	0.1849096
29.47	0.1844279
29.475	0.183995
29.48	0.1834566
29.485	0.183085
29.49	0.1828594
29.495	0.1824597
29.5	0.1820987
29.505	0.1816409
29.51	0.181199
29.515	0.1807117
29.52	0.1801872
29.525	0.1798073
29.53	0.1801708
29.535	0.1806695
29.54	0.181649
29.545	0.1826165
29.55	0.1836101
29.555	0.1845125
29.56	0.1854052
29.565	0.1861945
29.57	0.1862649
29.575	0.1861467
29.58	0.1856641
29.585	0.1851887
29.59	0.1847011
29.595	0.1842713
29.6	0.1839169
29.605	0.1834745
29.61	0.1830428
29.615	0.1819372
29.62	0.1808034
29.625	0.1796299
29.63	0.1785546
29.635	0.1774504
29.64	0.1763429
29.645	0.1753005
29.65	0.1741437
29.655	0.1730954
29.66	0.1716653
29.665	0.1703348
29.67	0.1690235
29.675	0.1677242
29.68	0.1662918
29.685	0.1649249
29.69	0.1635315
29.695	0.1619138
29.7	0.1604809
29.705	0.158917
29.71	0.1574365
29.715	0.1558953
29.72	0.1544479
29.725	0.1528624
29.73	0.1510914
29.735	0.1492869
29.74	0.1474847
29.745	0.1454759
29.75	0.1434464
29.755	0.1413883
29.76	0.1394268
29.765	0.1375183
29.77	0.1355769
29.775	0.1340034
29.78	0.1326436
29.785	0.1314733
29.79	0.1303398
29.795	0.1292526
29.8	0.1280729
29.805	0.1267041
29.81	0.1253649
29.815	0.1243265
29.82	0.1237449
29.825	0.1232375
29.83	0.1231091
29.835	0.1230059
29.84	0.1232239
29.845	0.1235213
29.85	0.1238168
29.855	0.1243464
29.86	0.1247734
29.865	0.1255118
29.87	0.1260511
29.875	0.1267052
29.88	0.1275846
29.885	0.1285598
29.89	0.1299587
29.895	0.1316465
29.9	0.1334597
29.905	0.1352736
29.91	0.1371941
29.915	0.1390725
29.92	0.1411749
29.925	0.1430587
29.93	0.1453115
29.935	0.1476118
29.94	0.1498857
29.945	0.1522988
29.95	0.1549334
29.955	0.1575374
29.96	0.1602222
29.965	0.162773
29.97	0.1651873
29.975	0.1676734
29.98	0.1704522
29.985	0.1730618
29.99	0.1757824
29.995	0.1784005
30	0.1809126
30.005	0.1834336
30.01	0.1860074
30.015	0.1886503
30.02	0.190857
30.025	0.1930927
30.03	0.1952182
30.035	0.1968661
30.04	0.1984663
30.045	0.1997406
30.05	0.2008937
30.055	0.2020404
30.06	0.2030314
30.065	0.2038629
30.07	0.2046371
30.075	0.2054361
30.08	0.206093
30.085	0.2064795
30.09	0.2068377
30.095	0.2066469
30.1	0.2060989
30.105	0.2055339
30.11	0.2049682
30.115	0.2043276
30.12	0.2036012
30.125	0.2025616
30.13	0.201586
30.135	0.2002004
30.14	0.1987976
30.145	0.1973829
30.15	0.1956602
30.155	0.1936397
30.16	0.1915744
30.165	0.1892775
30.17	0.1869502
30.175	0.1846187
30.18	0.1821613
30.185	0.1791847
30.19	0.1762083
30.195	0.1729134
30.2	0.1729134
30.205	0.1729134
30.21	0.1729134
30.215	0.1729134
30.22	0.1729134
30.225	0.1729134
30.23	0.1729134
30.235	0.1729134
30.24	0.1729134
30.245	0.1729134
30.25	0.1729134
30.255	0.1729134
30.26	0.1729134
30.265	0.1729134
30.27	0.1729134
30.275	0.1729134
30.28	0.1729134
30.285	0.1729134
30.29	0.1729134
30.295	0.1729134
30.3	0.1729134
30.305	0.1729134
30.31	0.1729134
30.315	0.1729134
30.32	0.1729134
30.325	0.1729134
30.33	0.1729134
30.335	0.1729134
30.34	0.1729134
30.345	0.1729134
30.35	0.1729134
30.355	0.1729134
30.36	0.1729134
30.365	0.1729134
30.37	0.1729134
30.375	0.1729134
30.38	0.1729134
30.385	0.1729134
30.39	0.1729134
30.395	0.1729134
Interval=	0.005 s
ExcelDateTime=	4.6085574032652286e+004	3/4/2026 13:46:36.421158
TimeFormat=	StartOfBlock
DateFormat=	
ChannelTitle=	RMS Biceps
Range=	0.18 mV
0	0.2002826
0.005	0.2002826
0.01	0.2002826
0.015	0.2002826
0.02	0.2002826
0.025	0.2002826
0.03	0.2002826
0.035	0.2002826
0.04	0.2002826
0.045	0.2002826
0.05	0.2002826
0.055	0.2002826
0.06	0.2002826
0.065	0.2002826
0.07	0.2002826
0.075	0.2002826
0.08	0.2002826
0.085	0.2002826
0.09	0.2002826
0.095	0.2002826
0.1	0.2002826
0.105	0.2002826
0.11	0.2002826
0.115	0.2002826
0.12	0.2002826
0.125	0.2002826
0.13	0.2002826
0.135	0.2002826
0.14	0.2002826
0.145	0.2002826
0.15	0.2002826
0.155	0.2002826
0.16	0.2002826
0.165	0.2002826
0.17	0.2002826
0.175	0.2002826
0.18	0.2002826
0.185	0.2002826
0.19	0.2002826
0.195	0.2002826
0.2	0.2002826
0.205	0.2000708
0.21	0.1996777
0.215	0.1993465
0.22	0.199099
0.225	0.1986566
0.23	0.1983011
0.235	0.1977025
0.24	0.1970488
0.245	0.1964019
0.25	0.1957808
0.255	0.1951515
0.26	0.194842
0.265	0.1944365
0.27	0.1941851
0.275	0.1939241
0.28	0.1935924
0.285	0.1931689
0.29	0.1923102
0.295	0.1910238
0.3	0.1896759
0.305	0.188344
0.31	0.186959
0.315	0.1856229
0.32	0.1844635
0.325	0.1831178
0.33	0.1818499
0.335	0.1803155
0.34	0.178961
0.345	0.1776214
0.35	0.1762719
0.355	0.1748822
0.36	0.1736802
0.365	0.1724998
0.37	0.1712526
0.375	0.1699988
0.38	0.168805
0.385	0.1676543
0.39	0.1665232
0.395	0.165575
0.4	0.1646768
0.405	0.1639033
0.41	0.1631518
0.415	0.1624254
0.42	0.1616237
0.425	0.1606649
0.43	0.1598294
0.435	0.1589372
0.44	0.1581961
0.445	0.1575003
0.45	0.1568055
0.455	0.1561663
0.46	0.1555408
0.465	0.1544498
0.47	0.1534281
0.475	0.1522016
0.48	0.1509882
0.485	0.1498328
0.49	0.1487896
0.495	0.1480536
0.5	0.1475571
0.505	0.147122
0.51	0.1467062
0.515	0.1464845
0.52	0.1463192
0.525	0.1460084
0.53	0.1459187
0.535	0.1457156
0.54	0.1456937
0.545	0.1452129
0.55	0.1447833
0.555	0.1443567
0.56	0.1439351
0.565	0.1432163
0.57	0.1424383
0.575	0.1417224
0.58	0.1410254
0.585	0.1402057
0.59	0.1392996
0.595	0.1383051
0.6	0.1372314
0.605	0.1361942
0.61	0.1350548
0.615	0.1338817
0.62	0.1329119
0.625	0.1320341
0.63	0.1312365
0.635	0.1307409
0.64	0.1303676
0.645	0.1300368
0.65	0.1298081
0.655	0.1295813
0.66	0.1292429
0.665	0.1289014
0.67	0.128753
0.675	0.1285872
0.68	0.1286501
0.685	0.1286998
0.69	0.1287531
0.695	0.1289678
0.7	0.1293228
0.705	0.1298473
0.71	0.1303615
0.715	0.1307836
0.72	0.1308608
0.725	0.1309031
0.73	0.1309386
0.735	0.1309714
0.74	0.1311366
0.745	0.1312558
0.75	0.1317098
0.755	0.1322503
0.76	0.1327978
0.765	0.1333963
0.77	0.1340985
0.775	0.1348151
0.78	0.1355238
0.785	0.1362327
0.79	0.1369356
0.795	0.1376963
0.8	0.1385014
0.805	0.1394298
0.81	0.140248
0.815	0.1410638
0.82	0.1418934
0.825	0.142449
0.83	0.14288
0.835	0.143329
0.84	0.1433831
0.845	0.1432582
0.85	0.14307
0.855	0.1426971
0.86	0.1423116
0.865	0.1423349
0.87	0.1423227
0.875	0.1427093
0.88	0.1431202
0.885	0.1433963
0.89	0.1436906
0.895	0.1440226
0.9	0.1440911
0.905	0.1439962
0.91	0.1436712
0.915	0.1432216
0.92	0.1428768
0.925	0.1427276
0.93	0.1426737
0.935	0.1426735
0.94	0.142738
0.945	0.1428474
0.95	0.1429983
0.955	0.1431009
0.96	0.1430527
0.965	0.1430023
0.97	0.1428846
0.975	0.1428102
0.98	0.1427471
0.985	0.1426648
0.99	0.1426543
0.995	0.1426954
1	0.1427378
1.005	0.1427931
1.01	0.1428254
1.015	0.1430282
1.02	0.1433037
1.025	0.1440478
1.03	0.1449887
1.035	0.1461693
1.04	0.1473334
1.045	0.1484804
1.05	0.1497162
1.055	0.1510358
1.06	0.1524607
1.065	0.1539977
1.07	0.1548155
1.075	0.1556508
1.08	0.1558755
1.085	0.1561021
1.09	0.1563458
1.095	0.1565519
1.1	0.1566668
1.105	0.1568946
1.11	0.157257
1.115	0.1576905
1.12	0.1581891
1.125	0.158596
1.13	0.1588989
1.135	0.1590474
1.14	0.1591885
1.145	0.1592353
1.15	0.1592769
1.155	0.1592848
1.16	0.1593156
1.165	0.1594207
1.17	0.159509
1.175	0.1596072
1.18	0.1597169
1.185	0.1598811
1.19	0.1600604
1.195	0.160161
1.2	0.1602581
1.205	0.1603375
1.21	0.1604043
1.215	0.1603726
1.22	0.160133
1.225	0.1597626
1.23	0.1585245
1.235	0.1573936
1.24	0.1559218
1.245	0.1546323
1.25	0.1535454
1.255	0.1524422
1.26	0.1511896
1.265	0.1498698
1.27	0.1482951
1.275	0.1472053
1.28	0.1463966
1.285	0.1459865
1.29	0.1456671
1.295	0.1454
1.3	0.1451565
1.305	0.1449505
1.31	0.1447648
1.315	0.1444455
1.32	0.1441452
1.325	0.1438275
1.33	0.1436343
1.335	0.1435173
1.34	0.1435496
1.345	0.1437181
1.35	0.1440168
1.355	0.1444053
1.36	0.1448479
1.365	0.1453509
1.37	0.1458335
1.375	0.1464454
1.38	0.1470782
1.385	0.1477602
1.39	0.1483501
1.395	0.1489834
1.4	0.1495934
1.405	0.1502949
1.41	0.1510249
1.415	0.151861
1.42	0.1528986
1.425	0.1540384
1.43	0.1552745
1.435	0.1572883
1.44	0.1589356
1.445	0.1606973
1.45	0.1620534
1.455	0.1632811
1.46	0.164563
1.465	0.1659041
1.47	0.1672615
1.475	0.1687501
1.48	0.1700245
1.485	0.1708656
1.49	0.1719379
1.495	0.1728329
1.5	0.174005
1.505	0.1752324
1.51	0.1765343
1.515	0.1779909
1.52	0.1794841
1.525	0.1810548
1.53	0.1826685
1.535	0.1841411
1.54	0.1856308
1.545	0.1870954
1.55	0.1883673
1.555	0.1895414
1.56	0.1905874
1.565	0.1915832
1.57	0.1924412
1.575	0.1934676
1.58	0.1943806
1.585	0.1953321
1.59	0.1962613
1.595	0.1971708
1.6	0.1980222
1.605	0.1990193
1.61	0.199898
1.615	0.2009588
1.62	0.2018425
1.625	0.2026339
1.63	0.2034602
1.635	0.204245
1.64	0.204441
1.645	0.2047029
1.65	0.2050344
1.655	0.205507
1.66	0.205991
1.665	0.2063721
1.67	0.2067107
1.675	0.2070616
1.68	0.207372
1.685	0.2079072
1.69	0.2085654
1.695	0.2088119
1.7	0.2091156
1.705	0.2089098
1.71	0.2085979
1.715	0.2081821
1.72	0.2074576
1.725	0.2067609
1.73	0.2059098
1.735	0.2049942
1.74	0.2041165
1.745	0.2031438
1.75	0.2020852
1.755	0.2010867
1.76	0.2000639
1.765	0.1990779
1.77	0.1980916
1.775	0.1972222
1.78	0.1960242
1.785	0.1947972
1.79	0.19355
1.795	0.1921265
1.8	0.1907438
1.805	0.1893753
1.81	0.1877068
1.815	0.1861257
1.82	0.1840941
1.825	0.1823044
1.83	0.1804254
1.835	0.1784408
1.84	0.1764292
1.845	0.1747764
1.85	0.1731801
1.855	0.171448
1.86	0.169789
1.865	0.1681309
1.87	0.1666636
1.875	0.1652611
1.88	0.1638041
1.885	0.1623183
1.89	0.1604882
1.895	0.1586375
1.9	0.1568106
1.905	0.1549847
1.91	0.1534837
1.915	0.1520508
1.92	0.15064
1.925	0.1494442
1.93	0.1481635
1.935	0.1469636
1.94	0.1457948
1.945	0.1446561
1.95	0.1436026
1.955	0.1425764
1.96	0.141582
1.965	0.1406799
1.97	0.1398614
1.975	0.1392644
1.98	0.138545
1.985	0.1383929
1.99	0.1382788
1.995	0.1379776
2	0.1378482
2.005	0.1377674
2.01	0.1376715
2.015	0.1378252
2.02	0.1377703
2.025	0.1380295
2.03	0.1379554
2.035	0.1379127
2.04	0.1379227
2.045	0.1380226
2.05	0.1382164
2.055	0.1384083
2.06	0.1387348
2.065	0.1388683
2.07	0.1390834
2.075	0.1389433
2.08	0.1387292
2.085	0.1385612
2.09	0.1384388
2.095	0.138442
2.1	0.1385257
2.105	0.1388239
2.11	0.1391523
2.115	0.1395323
2.12	0.139945
2.125	0.1403876
2.13	0.1412629
2.135	0.1421859
2.14	0.1435921
2.145	0.144989
2.15	0.1463362
2.155	0.1476471
2.16	0.1490416
2.165	0.1503993
2.17	0.1516621
2.175	0.1534338
2.18	0.1548895
2.185	0.1576067
2.19	0.1596768
2.195	0.1617222
2.2	0.1639381
2.205	0.1661316
2.21	0.1681797
2.215	0.1701969
2.22	0.1724885
2.225	0.1749804
2.23	0.1776758
2.235	0.1803448
2.24	0.1830214
2.245	0.1857593
2.25	0.1883744
2.255	0.1907801
2.26	0.1931624
2.265	0.1955288
2.27	0.1982085
2.275	0.2007394
2.28	0.2035859
2.285	0.2064109
2.29	0.2091787
2.295	0.2119463
2.3	0.2147179
2.305	0.2173884
2.31	0.2199985
2.315	0.222524
2.32	0.2250199
2.325	0.2275273
2.33	0.2300244
2.335	0.2320306
2.34	0.2340045
2.345	0.2353863
2.35	0.2367573
2.355	0.2381289
2.36	0.2394991
2.365	0.2407908
2.37	0.2422949
2.375	0.2441333
2.38	0.2456813
2.385	0.247382
2.39	0.2475307
2.395	0.2478771
2.4	0.2482054
2.405	0.2484277
2.41	0.2486515
2.415	0.248904
2.42	0.249299
2.425	0.2492294
2.43	0.2490418
2.435	0.248469
2.44	0.2479476
2.445	0.247405
2.45	0.2467103
2.455	0.2460468
2.46	0.2454593
2.465	0.2448874
2.47	0.2442006
2.475	0.2430642
2.48	0.2420911
2.485	0.2407385
2.49	0.2394244
2.495	0.2381036
2.5	0.2366902
2.505	0.2352446
2.51	0.2338072
2.515	0.2323627
2.52	0.2309487
2.525	0.2294592
2.53	0.2277921
2.535	0.2260987
2.54	0.2245176
2.545	0.2229537
2.55	0.2217302
2.555	0.220501
2.56	0.2193095
2.565	0.2181048
2.57	0.216928
2.575	0.215316
2.58	0.2129546
2.585	0.2099123
2.59	0.2065732
2.595	0.2041376
2.6	0.2016737
2.605	0.1992234
2.61	0.1968507
2.615	0.1944866
2.62	0.1921363
2.625	0.1894366
2.63	0.187031
2.635	0.184544
2.64	0.1823047
2.645	0.1800946
2.65	0.1779147
2.655	0.1758481
2.66	0.173772
2.665	0.1716488
2.67	0.1694277
2.675	0.1672881
2.68	0.1654826
2.685	0.1633095
2.69	0.1613907
2.695	0.1593936
2.7	0.1574177
2.705	0.1555402
2.71	0.153658
2.715	0.1518355
2.72	0.1500034
2.725	0.1482563
2.73	0.1465595
2.735	0.1450761
2.74	0.1435155
2.745	0.1420835
2.75	0.1405873
2.755	0.1389812
2.76	0.1373548
2.765	0.1356286
2.77	0.1339113
2.775	0.1321825
2.78	0.1306434
2.785	0.1297651
2.79	0.1298234
2.795	0.1300228
2.8	0.1302021
2.805	0.1304338
2.81	0.1306659
2.815	0.130759
2.82	0.1308104
2.825	0.1307975
2.83	0.1309669
2.835	0.1311128
2.84	0.1315567
2.845	0.1320055
2.85	0.132374
2.855	0.1326282
2.86	0.1329729
2.865	0.1333212
2.87	0.1337105
2.875	0.1341594
2.88	0.1345669
2.885	0.135188
2.89	0.1360148
2.895	0.1369149
2.9	0.1377234
2.905	0.13844
2.91	0.1391759
2.915	0.1399098
2.92	0.1406209
2.925	0.1413293
2.93	0.141761
2.935	0.1421675
2.94	0.1424281
2.945	0.1427384
2.95	0.1430045
2.955	0.1432843
2.96	0.1435274
2.965	0.1438929
2.97	0.144218
2.975	0.1445072
2.98	0.1448433
2.985	0.145234
2.99	0.1455179
2.995	0.1456991
3	0.1459588
3.005	0.1461169
3.01	0.1462048
3.015	0.1462662
3.02	0.1464225
3.025	0.1466116
3.03	0.146971
3.035	0.1473904
3.04	0.1479677
3.045	0.1482613
3.05	0.1485259
3.055	0.14873
3.06	0.1492202
3.065	0.1494371
3.07	0.1497534
3.075	0.1500317
3.08	0.1504442
3.085	0.1508839
3.09	0.1508669
3.095	0.1508245
3.1	0.1506398
3.105	0.1505585
3.11	0.1505372
3.115	0.1503035
3.12	0.1500803
3.125	0.1497077
3.13	0.1493336
3.135	0.1491209
3.14	0.1489223
3.145	0.1487844
3.15	0.148647
3.155	0.14853
3.16	0.1484673
3.165	0.1486788
3.17	0.1487905
3.175	0.1490378
3.18	0.1493089
3.185	0.1494713
3.19	0.1496531
3.195	0.1498828
3.2	0.1501309
3.205	0.15036
3.21	0.1506892
3.215	0.1510348
3.22	0.1513563
3.225	0.1516438
3.23	0.1517823
3.235	0.1516215
3.24	0.1514724
3.245	0.1509951
3.25	0.150677
3.255	0.1503656
3.26	0.1501258
3.265	0.1494319
3.27	0.1488937
3.275	0.1480545
3.28	0.147223
3.285	0.1461155
3.29	0.1450055
3.295	0.1441135
3.3	0.1433294
3.305	0.1426168
3.31	0.1418402
3.315	0.1410201
3.32	0.1403481
3.325	0.1396487
3.33	0.1391101
3.335	0.138596
3.34	0.1380286
3.345	0.1374543
3.35	0.1369121
3.355	0.1363675
3.36	0.1359025
3.365	0.1353569
3.37	0.1343147
3.375	0.1331168
3.38	0.1318228
3.385	0.1305097
3.39	0.129278
3.395	0.1280487
3.4	0.126813
3.405	0.1256696
3.41	0.1245409
3.415	0.1233683
3.42	0.1221659
3.425	0.1211123
3.43	0.1200239
3.435	0.1192649
3.44	0.1186996
3.445	0.1182939
3.45	0.1182784
3.455	0.1182643
3.46	0.1182668
3.465	0.1182618
3.47	0.1185497
3.475	0.1188584
3.48	0.1194408
3.485	0.1200233
3.49	0.1207094
3.495	0.1213909
3.5	0.1220678
3.505	0.1225412
3.51	0.1230163
3.515	0.123506
3.52	0.1240213
3.525	0.1245226
3.53	0.1250592
3.535	0.1254805
3.54	0.1260026
3.545	0.1265953
3.55	0.1273245
3.555	0.1279948
3.56	0.1287414
3.565	0.1293867
3.57	0.1300334
3.575	0.1309445
3.58	0.1320216
3.585	0.1329683
3.59	0.1338997
3.595	0.1347705
3.6	0.1356465
3.605	0.136766
3.61	0.137808
3.615	0.1389815
3.62	0.1401496
3.625	0.1413422
3.63	0.1423183
3.635	0.1433755
3.64	0.1440715
3.645	0.1447835
3.65	0.1450761
3.655	0.1451054
3.66	0.1450912
3.665	0.1450924
3.67	0.145091
3.675	0.1450574
3.68	0.1449626
3.685	0.1447831
3.69	0.1446412
3.695	0.144534
3.7	0.144478
3.705	0.1444355
3.71	0.1444661
3.715	0.1445334
3.72	0.1446301
3.725	0.1448512
3.73	0.1451572
3.735	0.1454427
3.74	0.1457741
3.745	0.1458649
3.75	0.1458866
3.755	0.1456903
3.76	0.1455257
3.765	0.1452892
3.77	0.1450081
3.775	0.144744
3.78	0.1444519
3.785	0.1442017
3.79	0.1441229
3.795	0.1441108
3.8	0.1441228
3.805	0.1440988
3.81	0.1437232
3.815	0.1433227
3.82	0.1428996
3.825	0.142456
3.83	0.1421654
3.835	0.1421005
3.84	0.1420625
3.845	0.1422556
3.85	0.1424114
3.855	0.1427684
3.86	0.1432726
3.865	0.1436816
3.87	0.1440908
3.875	0.1445406
3.88	0.145014
3.885	0.1455241
3.89	0.1460668
3.895	0.1465316
3.9	0.1471508
3.905	0.147641
3.91	0.148253
3.915	0.1489253
3.92	0.1495005
3.925	0.1500442
3.93	0.1503271
3.935	0.1506792
3.94	0.151013
3.945	0.1513643
3.95	0.1518553
3.955	0.1524184
3.96	0.1530841
3.965	0.1537325
3.97	0.1546381
3.975	0.1555772
3.98	0.1565784
3.985	0.1576049
3.99	0.1584505
3.995	0.1591545
4	0.1597607
4.005	0.1603653
4.01	0.1610002
4.015	0.1616703
4.02	0.1624196
4.025	0.1628117
4.03	0.1632308
4.035	0.1633469
4.04	0.1632662
4.045	0.1631336
4.05	0.1628824
4.055	0.1629159
4.06	0.1630003
4.065	0.1630522
4.07	0.1632326
4.075	0.1633616
4.08	0.1634251
4.085	0.1634994
4.09	0.1636768
4.095	0.1640029
4.1	0.1644829
4.105	0.1647182
4.11	0.1650145
4.115	0.1651036
4.12	0.1651168
4.125	0.1651936
4.13	0.1652867
4.135	0.1656133
4.14	0.1656332
4.145	0.165667
4.15	0.1656899
4.155	0.165707
4.16	0.1656391
4.165	0.1655655
4.17	0.1655089
4.175	0.164909
4.18	0.1643248
4.185	0.1635836
4.19	0.1628083
4.195	0.1621044
4.2	0.161499
4.205	0.1609122
4.21	0.1603309
4.215	0.1597151
4.22	0.1591202
4.225	0.1584313
4.23	0.1579889
4.235	0.1575603
4.24	0.1573057
4.245	0.1572615
4.25	0.157043
4.255	0.156929
4.26	0.1562337
4.265	0.1555008
4.27	0.1547821
4.275	0.1539839
4.28	0.1532064
4.285	0.152439
4.29	0.1516363
4.295	0.1506027
4.3	0.1492434
4.305	0.1476261
4.31	0.1462384
4.315	0.1448322
4.32	0.1437065
4.325	0.1425797
4.33	0.1413987
4.335	0.1401828
4.34	0.1387936
4.345	0.1377632
4.35	0.1367638
4.355	0.1357897
4.36	0.1348592
4.365	0.1339799
4.37	0.1335124
4.375	0.1330031
4.38	0.1331127
4.385	0.1332054
4.39	0.1334072
4.395	0.133635
4.4	0.1339386
4.405	0.1341974
4.41	0.1344744
4.415	0.134735
4.42	0.1351314
4.425	0.1358546
4.43	0.1367079
4.435	0.1378247
4.44	0.1388863
4.445	0.1399161
4.45	0.1407136
4.455	0.1416553
4.46	0.1425405
4.465	0.1438056
4.47	0.1450748
4.475	0.14638
4.48	0.147731
4.485	0.1490818
4.49	0.1509142
4.495	0.1528372
4.5	0.1552666
4.505	0.1578253
4.51	0.1604249
4.515	0.1627638
4.52	0.1650671
4.525	0.1670159
4.53	0.1693084
4.535	0.1718561
4.54	0.1747068
4.545	0.177674
4.55	0.1803236
4.555	0.1829185
4.56	0.1854372
4.565	0.187817
4.57	0.1901934
4.575	0.1920516
4.58	0.1940639
4.585	0.1959941
4.59	0.1980129
4.595	0.2000471
4.6	0.2020723
4.605	0.204036
4.61	0.2060076
4.615	0.2079751
4.62	0.2099277
4.625	0.2117343
4.63	0.2131688
4.635	0.2144889
4.64	0.2154861
4.645	0.2165436
4.65	0.2176158
4.655	0.2187053
4.66	0.2198142
4.665	0.220922
4.67	0.2220135
4.675	0.2231771
4.68	0.2242925
4.685	0.2253622
4.69	0.2264705
4.695	0.2269362
4.7	0.2273348
4.705	0.2271806
4.71	0.2270047
4.715	0.2268475
4.72	0.2267855
4.725	0.2268039
4.73	0.2269424
4.735	0.2265606
4.74	0.2257857
4.745	0.2245143
4.75	0.2230085
4.755	0.2216353
4.76	0.2202111
4.765	0.2187622
4.77	0.2174804
4.775	0.2161701
4.78	0.215104
4.785	0.2137753
4.79	0.2120877
4.795	0.2102144
4.8	0.2086904
4.805	0.207117
4.81	0.2055663
4.815	0.2039866
4.82	0.2024585
4.825	0.2010628
4.83	0.1997117
4.835	0.1986615
4.84	0.1976763
4.845	0.1968116
4.85	0.195815
4.855	0.1950424
4.86	0.1943122
4.865	0.1937308
4.87	0.1931579
4.875	0.1924903
4.88	0.1916403
4.885	0.1907675
4.89	0.1899669
4.895	0.1890577
4.9	0.1885314
4.905	0.1879416
4.91	0.1876689
4.915	0.1875043
4.92	0.1873324
4.925	0.1871227
4.93	0.1867342
4.935	0.1863578
4.94	0.1863829
4.945	0.1866304
4.95	0.1872748
4.955	0.187982
4.96	0.188639
4.965	0.1893361
4.97	0.1902261
4.975	0.1908312
4.98	0.1914091
4.985	0.1917643
4.99	0.1922655
4.995	0.1932749
5	0.1946249
5.005	0.1950833
5.01	0.1956385
5.015	0.1961223
5.02	0.196555
5.025	0.1967986
5.03	0.1967883
5.035	0.1967672
5.04	0.1965167
5.045	0.1962992
5.05	0.1961249
5.055	0.1960164
5.06	0.1954308
5.065	0.194873
5.07	0.1939829
5.075	0.1930957
5.08	0.1922505
5.085	0.1914952
5.09	0.1907634
5.095	0.1899417
5.1	0.1891862
5.105	0.1884829
5.11	0.1878313
5.115	0.1871853
5.12	0.1863678
5.125	0.1855644
5.13	0.1847416
5.135	0.1840098
5.14	0.1832568
5.145	0.1824208
5.15	0.1815893
5.155	0.1805876
5.16	0.1796613
5.165	0.1787302
5.17	0.1777873
5.175	0.1765128
5.18	0.175385
5.185	0.1742454
5.19	0.1731995
5.195	0.1720813
5.2	0.1704334
5.205	0.1681886
5.21	0.1664524
5.215	0.1647365
5.22	0.1630582
5.225	0.1614399
5.23	0.1599348
5.235	0.1585379
5.24	0.1571556
5.245	0.1559059
5.25	0.1545023
5.255	0.1530567
5.26	0.1516055
5.265	0.1504027
5.27	0.1491585
5.275	0.1481065
5.28	0.1470199
5.285	0.1459461
5.29	0.1448666
5.295	0.1437832
5.3	0.142752
5.305	0.1416726
5.31	0.1404705
5.315	0.1393266
5.32	0.1381862
5.325	0.1370817
5.33	0.1359302
5.335	0.1349215
5.34	0.1338967
5.345	0.1328735
5.35	0.1317127
5.355	0.1306138
5.36	0.1294897
5.365	0.1283902
5.37	0.1273151
5.375	0.1262857
5.38	0.1254149
5.385	0.1245382
5.39	0.1236919
5.395	0.1230312
5.4	0.1224352
5.405	0.1222139
5.41	0.1223028
5.415	0.1223945
5.42	0.1220525
5.425	0.1216837
5.43	0.121252
5.435	0.1208655
5.44	0.1204723
5.445	0.1200443
5.45	0.1195654
5.455	0.1192468
5.46	0.1189723
5.465	0.1188946
5.47	0.1189097
5.475	0.1188388
5.48	0.1189238
5.485	0.1190649
5.49	0.1192092
5.495	0.1193567
5.5	0.1195404
5.505	0.1196998
5.51	0.1206615
5.515	0.1217253
5.52	0.1233776
5.525	0.1249299
5.53	0.1265564
5.535	0.1282116
5.54	0.129575
5.545	0.1309036
5.55	0.1322521
5.555	0.1336987
5.56	0.1350252
5.565	0.1364742
5.57	0.1378791
5.575	0.1392118
5.58	0.1405442
5.585	0.1419011
5.59	0.1433018
5.595	0.1447249
5.6	0.1459197
5.605	0.1471755
5.61	0.1484141
5.615	0.1497177
5.62	0.1509917
5.625	0.1524428
5.63	0.1539197
5.635	0.1554255
5.64	0.1568521
5.645	0.1582665
5.65	0.1597648
5.655	0.1612792
5.66	0.1628363
5.665	0.1643322
5.67	0.1655833
5.675	0.166863
5.68	0.1682198
5.685	0.1694318
5.69	0.1705956
5.695	0.1717442
5.7	0.1728705
5.705	0.173944
5.71	0.1751403
5.715	0.1754714
5.72	0.1757068
5.725	0.1753467
5.73	0.1750717
5.735	0.1747415
5.74	0.174362
5.745	0.1744891
5.75	0.1747456
5.755	0.1750436
5.76	0.1754551
5.765	0.1758835
5.77	0.1762213
5.775	0.1765138
5.78	0.1769477
5.785	0.1772902
5.79	0.1777287
5.795	0.1780548
5.8	0.1783465
5.805	0.1789288
5.81	0.179426
5.815	0.1799513
5.82	0.1805478
5.825	0.1811494
5.83	0.1817875
5.835	0.1823914
5.84	0.1830099
5.845	0.18366
5.85	0.1843525
5.855	0.1849043
5.86	0.1854764
5.865	0.1858344
5.87	0.1862303
5.875	0.1866637
5.88	0.1869865
5.885	0.1872465
5.89	0.1874617
5.895	0.1876931
5.9	0.1879656
5.905	0.188274
5.91	0.1886021
5.915	0.1887086
5.92	0.1889028
5.925	0.1891291
5.93	0.189148
5.935	0.1890866
5.94	0.1890856
5.945	0.1891626
5.95	0.1885077
5.955	0.1876655
5.96	0.1866724
5.965	0.185477
5.97	0.1842807
5.975	0.1832747
5.98	0.1822981
5.985	0.181206
5.99	0.1801127
5.995	0.1788313
6	0.1776623
6.005	0.1766386
6.01	0.1752959
6.015	0.174263
6.02	0.173151
6.025	0.1718676
6.03	0.1707985
6.035	0.169683
6.04	0.1685805
6.045	0.167405
6.05	0.1662198
6.055	0.1649636
6.06	0.1637783
6.065	0.1625618
6.07	0.1614765
6.075	0.1603541
6.08	0.1592549
6.085	0.1581533
6.09	0.1570853
6.095	0.1560996
6.1	0.1550847
6.105	0.1540423
6.11	0.1529469
6.115	0.1518476
6.12	0.1511623
6.125	0.150797
6.13	0.1505623
6.135	0.1507221
6.14	0.1509239
6.145	0.1510797
6.15	0.1510955
6.155	0.1515735
6.16	0.1521237
6.165	0.1527762
6.17	0.1536072
6.175	0.1544374
6.18	0.1549356
6.185	0.1554824
6.19	0.1560405
6.195	0.1566685
6.2	0.1573794
6.205	0.1579558
6.21	0.1583111
6.215	0.1587701
6.22	0.158621
6.225	0.1585366
6.23	0.1584978
6.235	0.157985
6.24	0.1575085
6.245	0.157
6.25	0.1565147
6.255	0.1560266
6.26	0.1555508
6.265	0.1551129
6.27	0.1546901
6.275	0.1543684
6.28	0.15408
6.285	0.1538086
6.29	0.1536231
6.295	0.1535985
6.3	0.1536405
6.305	0.1537178
6.31	0.1538641
6.315	0.1540502
6.32	0.1542455
6.325	0.153907
6.33	0.1534523
6.335	0.1527873
6.34	0.1521892
6.345	0.151605
6.35	0.1509767
6.355	0.1505058
6.36	0.1502302
6.365	0.1499929
6.37	0.1499478
6.375	0.1497589
6.38	0.1498291
6.385	0.1500468
6.39	0.1503252
6.395	0.1506276
6.4	0.1508716
6.405	0.1511624
6.41	0.1515252
6.415	0.1520138
6.42	0.1524651
6.425	0.1533709
6.43	0.1542854
6.435	0.1553268
6.44	0.1566359
6.445	0.1578985
6.45	0.1591962
6.455	0.1605158
6.46	0.1619206
6.465	0.1633276
6.47	0.1647203
6.475	0.1660443
6.48	0.1671805
6.485	0.16828
6.49	0.1693936
6.495	0.1704782
6.5	0.1713737
6.505	0.1721457
6.51	0.1729042
6.515	0.1734551
6.52	0.1739398
6.525	0.1743959
6.53	0.175056
6.535	0.1757707
6.54	0.1765597
6.545	0.1772598
6.55	0.1779593
6.555	0.178724
6.56	0.1793621
6.565	0.1796699
6.57	0.1799637
6.575	0.1799463
6.58	0.1799954
6.585	0.1796327
6.59	0.179274
6.595	0.1786842
6.6	0.1779857
6.605	0.1773208
6.61	0.176626
6.615	0.1759181
6.62	0.1749808
6.625	0.1740732
6.63	0.1727991
6.635	0.1714659
6.64	0.169948
6.645	0.1683504
6.65	0.1667546
6.655	0.1652507
6.66	0.1636826
6.665	0.1619041
6.67	0.1601038
6.675	0.1581819
6.68	0.1562836
6.685	0.1545078
6.69	0.1527486
6.695	0.1509136	#1 JL BL3 
6.7	0.1491859
6.705	0.1474747
6.71	0.1458132
6.715	0.1442105
6.72	0.1428966
6.725	0.1416437
6.73	0.1405189
6.735	0.1394153
6.74	0.138389
6.745	0.1373671
6.75	0.1364656
6.755	0.1355479
6.76	0.1345663
6.765	0.1336146
6.77	0.1328678
6.775	0.1321141
6.78	0.1315485
6.785	0.1310964
6.79	0.1308766
6.795	0.1307504
6.8	0.1307999
6.805	0.1309605
6.81	0.1310876
6.815	0.131168
6.82	0.1313721
6.825	0.1318833
6.83	0.1324536
6.835	0.1333236
6.84	0.134184
6.845	0.1351429
6.85	0.1361992
6.855	0.1372553
6.86	0.137968
6.865	0.1388148
6.87	0.1397554
6.875	0.14082
6.88	0.1419734
6.885	0.1431026
6.89	0.1441732
6.895	0.1451819
6.9	0.1462546
6.905	0.147021
6.91	0.1476336
6.915	0.1482529
6.92	0.1486845
6.925	0.1487799
6.93	0.1488284
6.935	0.1486971
6.94	0.1486477
6.945	0.1484343
6.95	0.148212
6.955	0.1478638
6.96	0.1474906
6.965	0.1472043
6.97	0.1469436
6.975	0.1466943
6.98	0.1464976
6.985	0.1463213
6.99	0.1459369
6.995	0.1455875
7	0.1451974
7.005	0.1448158
7.01	0.1444365
7.015	0.1440738
7.02	0.1438995
7.025	0.1435949
7.03	0.1431177
7.035	0.1426149
7.04	0.142091
7.045	0.1416073
7.05	0.1411204
7.055	0.1407884
7.06	0.1404866
7.065	0.1408602
7.07	0.1412299
7.075	0.1417595
7.08	0.1420595
7.085	0.1422958
7.09	0.14257
7.095	0.1427735
7.1	0.143056
7.105	0.1433051
7.11	0.1437093
7.115	0.1442714
7.12	0.1448458
7.125	0.1455579
7.13	0.1464891
7.135	0.1475101
7.14	0.1485746
7.145	0.1494807
7.15	0.1504446
7.155	0.1514109
7.16	0.1524222
7.165	0.1534946
7.17	0.1544283
7.175	0.1553669
7.18	0.1564427
7.185	0.15742
7.19	0.15841
7.195	0.1594788
7.2	0.1605311
7.205	0.1614249
7.21	0.1623481
7.215	0.1633532
7.22	0.1643764
7.225	0.1652122
7.23	0.1660836
7.235	0.1670546
7.24	0.1679773
7.245	0.1689494
7.25	0.1698738
7.255	0.1708473
7.26	0.171406
7.265	0.1718992
7.27	0.1716333
7.275	0.1711178
7.28	0.1703386
7.285	0.1696167
7.29	0.1689099
7.295	0.168186
7.3	0.1675152
7.305	0.1668877
7.31	0.1661997
7.315	0.165628
7.32	0.1650533
7.325	0.1644497
7.33	0.1637913
7.335	0.1630958
7.34	0.1622472
7.345	0.1614697
7.35	0.160736
7.355	0.1600844
7.36	0.1595626
7.365	0.159044
7.37	0.158488
7.375	0.1579842
7.38	0.1574726
7.385	0.1566833
7.39	0.1559387
7.395	0.1551434
7.4	0.1543472
7.405	0.1536159
7.41	0.1530121
7.415	0.1523355
7.42	0.1514563
7.425	0.1505751
7.43	0.1497253
7.435	0.148771
7.44	0.1477616
7.445	0.1467625
7.45	0.1457627
7.455	0.1447805
7.46	0.1440458
7.465	0.1436291
7.47	0.1433409
7.475	0.1434037
7.48	0.1436424
7.485	0.1441343
7.49	0.1446891
7.495	0.1453509
7.5	0.1459591
7.505	0.1465749
7.51	0.1469235
7.515	0.1473322
7.52	0.1475321
7.525	0.147722
7.53	0.147943
7.535	0.1481832
7.54	0.1484097
7.545	0.1487367
7.55	0.1489023
7.555	0.1491443
7.56	0.1492196
7.565	0.1490576
7.57	0.1489006
7.575	0.1486746
7.58	0.1484564
7.585	0.1482213
7.59	0.1480959
7.595	0.1479529
7.6	0.1478526
7.605	0.1477558
7.61	0.1475261
7.615	0.1472915
7.62	0.147117
7.625	0.1470095
7.63	0.1468145
7.635	0.1465891
7.64	0.1464312
7.645	0.1462706
7.65	0.1461621
7.655	0.1458692
7.66	0.1456187
7.665	0.1447195
7.67	0.1437232
7.675	0.1425339
7.68	0.1414135
7.685	0.1402988
7.69	0.1390109
7.695	0.1376313
7.7	0.1360306
7.705	0.1345862
7.71	0.1331369
7.715	0.1318698
7.72	0.1306864
7.725	0.1295527
7.73	0.1285171
7.735	0.1274005
7.74	0.1262768
7.745	0.125181
7.75	0.12441
7.755	0.1237449
7.76	0.1231277
7.765	0.122653
7.77	0.1228163
7.775	0.1229726
7.78	0.1243606
7.785	0.125904
7.79	0.1275887
7.795	0.1301037
7.8	0.1325866
7.805	0.1353064
7.81	0.1379842
7.815	0.1408051
7.82	0.1435884
7.825	0.1462827
7.83	0.1489738
7.835	0.1517373
7.84	0.1544852
7.845	0.1573315
7.85	0.1602439
7.855	0.1630814
7.86	0.1660137
7.865	0.1688695
7.87	0.1719325
7.875	0.1752811
7.88	0.1786694
7.885	0.1820533
7.89	0.1854633
7.895	0.1888648
7.9	0.1925746
7.905	0.1963552
7.91	0.2003121
7.915	0.2041648
7.92	0.2080883
7.925	0.2118079
7.93	0.2155227
7.935	0.2192009
7.94	0.2229653
7.945	0.226677
7.95	0.2302973
7.955	0.2335032
7.96	0.2367348
7.965	0.2397477
7.97	0.2426986
7.975	0.2450621
7.98	0.2474016
7.985	0.248762
7.99	0.2500173
7.995	0.2511599
8	0.2514953
8.005	0.2518324
8.01	0.2518874
8.015	0.2519404
8.02	0.2519109
8.025	0.2518608
8.03	0.2518383
8.035	0.2519199
8.04	0.2521028
8.045	0.2523238
8.05	0.2524432
8.055	0.2524444
8.06	0.2524051
8.065	0.2523217
8.07	0.2522579
8.075	0.2523723
8.08	0.2521428
8.085	0.2518913
8.09	0.2516931
8.095	0.2513762
8.1	0.251087
8.105	0.2505092
8.11	0.2498456
8.115	0.2488519
8.12	0.248168
8.125	0.2472214
8.13	0.2466182
8.135	0.246447
8.14	0.2460779
8.145	0.2462203
8.15	0.2467212
8.155	0.247256
8.16	0.2481668
8.165	0.2489461
8.17	0.2498274
8.175	0.250729
8.18	0.2519815
8.185	0.2532933
8.19	0.2549894
8.195	0.2566402
8.2	0.2585509
8.205	0.2609609
8.21	0.2635031
8.215	0.2663966
8.22	0.2692503
8.225	0.2721414
8.23	0.2750494
8.235	0.2780749
8.24	0.2808763
8.245	0.2835079
8.25	0.2862053
8.255	0.2888721
8.26	0.2916625
8.265	0.294533
8.27	0.2973864
8.275	0.3002695
8.28	0.302865
8.285	0.3055371
8.29	0.308207
8.295	0.3106597
8.3	0.3136571
8.305	0.3166454
8.31	0.3196778
8.315	0.3227272
8.32	0.3255739
8.325	0.3281156
8.33	0.3307441
8.335	0.3331939
8.34	0.3349102
8.345	0.3368167
8.35	0.3377415
8.355	0.3386041
8.36	0.3396828
8.365	0.3409795
8.37	0.3426889
8.375	0.3444191
8.38	0.3467941
8.385	0.3496593
8.39	0.3536869
8.395	0.3585101
8.4	0.3655029
8.405	0.3737998
8.41	0.3817119
8.415	0.3901393
8.42	0.3979913
8.425	0.4057636
8.43	0.413647
8.435	0.4213404
8.44	0.4286794
8.445	0.4371203
8.45	0.4460115
8.455	0.4556903
8.46	0.4652107
8.465	0.4747451
8.47	0.4840086
8.475	0.4930988
8.48	0.502033
8.485	0.5108943
8.49	0.5195832
8.495	0.5288636
8.5	0.538049
8.505	0.5470515
8.51	0.5559451
8.515	0.5645382
8.52	0.5729729
8.525	0.581424
8.53	0.5897627
8.535	0.5979743
8.54	0.6059046
8.545	0.6139406
8.55	0.6218131
8.555	0.6298564
8.56	0.6374861
8.565	0.6448264
8.57	0.6516272
8.575	0.6580049
8.58	0.6642932
8.585	0.6698244
8.59	0.6747044
8.595	0.6782459
8.6	0.6807925
8.605	0.6809616
8.61	0.6794267
8.615	0.6779492
8.62	0.6756798
8.625	0.6735339
8.63	0.6712995
8.635	0.668653
8.64	0.666001
8.645	0.6633959
8.65	0.6592391
8.655	0.6541745
8.66	0.647554
8.665	0.6408074
8.67	0.6335472
8.675	0.6262284
8.68	0.6188226
8.685	0.611183
8.69	0.6034365
8.695	0.5956133
8.7	0.5863265
8.705	0.5768864
8.71	0.5664983
8.715	0.5557507
8.72	0.5449328
8.725	0.5339126
8.73	0.5226823
8.735	0.5111837
8.74	0.4994793
8.745	0.4877086
8.75	0.4756472
8.755	0.4631892
8.76	0.4504011
8.765	0.4374915
8.77	0.424231
8.775	0.4109211
8.78	0.3973839
8.785	0.3833894
8.79	0.3695057
8.795	0.355741
8.8	0.3427417
8.805	0.3303526
8.81	0.320044
8.815	0.3108613
8.82	0.301355
8.825	0.2919106
8.83	0.2821586
8.835	0.2721473
8.84	0.2623423
8.845	0.2521895
8.85	0.24167
8.855	0.2328654
8.86	0.2251399
8.865	0.2195107
8.87	0.213867
8.875	0.2088365
8.88	0.2036588
8.885	0.1983433
8.89	0.1932057
8.895	0.1879288
8.9	0.1825026
8.905	0.1792288
8.91	0.1759011
8.915	0.1742304
8.92	0.1728795
8.925	0.1714853
8.93	0.1700826
8.935	0.168439
8.94	0.1667972
8.945	0.1649571
8.95	0.1628466
8.955	0.1606256
8.96	0.1586384
8.965	0.1567676
8.97	0.1549776
8.975	0.1534733
8.98	0.1521201
8.985	0.150878
8.99	0.1498165
8.995	0.1487764
9	0.147454
9.005	0.146097
9.01	0.1445603
9.015	0.1429507
9.02	0.1420686
9.025	0.1412671
9.03	0.1413454
9.035	0.1414175
9.04	0.1415138
9.045	0.1416204
9.05	0.1416365
9.055	0.141561
9.06	0.1414871
9.065	0.1412798
9.07	0.1411038
9.075	0.1408915
9.08	0.140596
9.085	0.1403755
9.09	0.1402066
9.095	0.1400419
9.1	0.1399043
9.105	0.1397779
9.11	0.1395244
9.115	0.1392833
9.12	0.1390413
9.125	0.1388707
9.13	0.1387592
9.135	0.1386664
9.14	0.1386728
9.145	0.1387771
9.15	0.1387681
9.155	0.1389008
9.16	0.1390991
9.165	0.1393539
9.17	0.1393108
9.175	0.1393781
9.18	0.1392424
9.185	0.1389394
9.19	0.1386286
9.195	0.1379249
9.2	0.1371353
9.205	0.1367876
9.21	0.1364939
9.215	0.1363767
9.22	0.1364378
9.225	0.1365103
9.23	0.1366483
9.235	0.1367484
9.24	0.1367922
9.245	0.1369249
9.25	0.136917
9.255	0.1369692
9.26	0.1370745
9.265	0.1373858
9.27	0.1377486
9.275	0.1380782
9.28	0.1383373
9.285	0.1387511
9.29	0.1391367
9.295	0.1395034
9.3	0.1398213
9.305	0.1401331
9.31	0.140424
9.315	0.1407772
9.32	0.1411182
9.325	0.1414745
9.33	0.1416961
9.335	0.1418378
9.34	0.14196
9.345	0.142027
9.35	0.14223
9.355	0.1426757
9.36	0.1431296
9.365	0.1437735
9.37	0.1442613
9.375	0.144854
9.38	0.1454208
9.385	0.1462983
9.39	0.1473427
9.395	0.1486245
9.4	0.150092
9.405	0.1516043
9.41	0.1525532
9.415	0.1534279
9.42	0.1542089
9.425	0.1547182
9.43	0.1552665
9.435	0.1557002
9.44	0.156115
9.445	0.1566459
9.45	0.1570009
9.455	0.1574631
9.46	0.1579485
9.465	0.158628
9.47	0.1589581
9.475	0.1594108
9.48	0.1596944
9.485	0.1600348
9.49	0.1601705
9.495	0.1603064
9.5	0.1603666
9.505	0.1604743
9.51	0.1605885
9.515	0.1607297
9.52	0.1609884
9.525	0.1612792
9.53	0.1616138
9.535	0.1620018
9.54	0.1624974
9.545	0.1631529
9.55	0.1638846
9.555	0.164719
9.56	0.1653751
9.565	0.1660105
9.57	0.1663227
9.575	0.1667062
9.58	0.1671386
9.585	0.1673367
9.59	0.1671404
9.595	0.1670414
9.6	0.1665288
9.605	0.1662005
9.61	0.1658772
9.615	0.1658364
9.62	0.1661738
9.625	0.1664828
9.63	0.1671077
9.635	0.1676494
9.64	0.168245
9.645	0.1688692
9.65	0.1693401
9.655	0.1699728
9.66	0.1706048
9.665	0.1712481
9.67	0.1716066
9.675	0.1721907
9.68	0.1725653
9.685	0.1730898
9.69	0.1736193
9.695	0.1743299
9.7	0.1750005
9.705	0.1757392
9.71	0.1764951
9.715	0.17721
9.72	0.1779737
9.725	0.1785382
9.73	0.1791501
9.735	0.1798936
9.74	0.1807656
9.745	0.181558
9.75	0.1820722
9.755	0.1826356
9.76	0.1830346
9.765	0.1838985
9.77	0.1850823
9.775	0.1864014
9.78	0.1876918
9.785	0.1890542
9.79	0.1905504
9.795	0.192213
9.8	0.1936488
9.805	0.1952177
9.81	0.1965392
9.815	0.1978748
9.82	0.1991863
9.825	0.199914
9.83	0.2006791
9.835	0.2011715
9.84	0.2017182
9.845	0.2022559
9.85	0.2031535
9.855	0.2041175
9.86	0.2050733
9.865	0.2059765
9.87	0.2067887
9.875	0.2077078
9.88	0.2085049
9.885	0.2094241
9.89	0.2102944
9.895	0.2112894
9.9	0.2121482
9.905	0.2130308
9.91	0.2138778
9.915	0.2146871
9.92	0.2155245
9.925	0.2162346
9.93	0.2170088
9.935	0.2178763
9.94	0.218839
9.945	0.2197616
9.95	0.2206465
9.955	0.2216527
9.96	0.2228601
9.965	0.2239307
9.97	0.2243644
9.975	0.2244996
9.98	0.2246369
9.985	0.2248601
9.99	0.2248702
9.995	0.2248955
10	0.2250732
10.005	0.2255061
10.01	0.2260427
10.015	0.2266468
10.02	0.2271635
10.025	0.2276759
10.03	0.2284653
10.035	0.2295767
10.04	0.2308164
10.045	0.2322058
10.05	0.2338978
10.055	0.2349313
10.06	0.2359967
10.065	0.2369673
10.07	0.2379465
10.075	0.239007
10.08	0.2399535
10.085	0.2409704
10.09	0.2424055
10.095	0.2438932
10.1	0.2454899
10.105	0.2472196
10.11	0.2489446
10.115	0.2506744
10.12	0.2523788
10.125	0.2540712
10.13	0.2558046
10.135	0.2575367
10.14	0.2589953
10.145	0.2599509
10.15	0.2607346
10.155	0.2615621
10.16	0.2623996
10.165	0.262757
10.17	0.2632692
10.175	0.2640488
10.18	0.2646892
10.185	0.2653473
10.19	0.265868
10.195	0.2665975
10.2	0.2673161
10.205	0.2678204
10.21	0.2678694
10.215	0.267784
10.22	0.2676717
10.225	0.2676045
10.23	0.2676755
10.235	0.2677649
10.24	0.2672857
10.245	0.2667262
10.25	0.265853
10.255	0.2648512
10.26	0.2641602
10.265	0.2639781
10.27	0.2638067
10.275	0.2636406
10.28	0.2634066
10.285	0.2632782
10.29	0.2631132
10.295	0.2620747
10.3	0.2609807
10.305	0.2593354
10.31	0.2575014
10.315	0.2556427
10.32	0.2537685
10.325	0.2518779
10.33	0.249982
10.335	0.2480763
10.34	0.2462136
10.345	0.2444136
10.35	0.2428751
10.355	0.2414087
10.36	0.2399807
10.365	0.2388586
10.37	0.23809
10.375	0.2372682
10.38	0.2364539
10.385	0.2358306
10.39	0.2351907
10.395	0.2346443
10.4	0.2339466
10.405	0.233257
10.41	0.2326111
10.415	0.2322882
10.42	0.2320378
10.425	0.2317013
10.43	0.2313643
10.435	0.2311677
10.44	0.2309443
10.445	0.2315884
10.45	0.2322993
10.455	0.2331725
10.46	0.233388
10.465	0.2335487
10.47	0.2324269
10.475	0.2313022
10.48	0.2301811
10.485	0.2293779
10.49	0.228522
10.495	0.2279497
10.5	0.2280408
10.505	0.2281663
10.51	0.2286522
10.515	0.2292625
10.52	0.2298757
10.525	0.2304873
10.53	0.2311115
10.535	0.2318046
10.54	0.2326888
10.545	0.2335927
10.55	0.2347301
10.555	0.235905
10.56	0.2371026
10.565	0.2381887
10.57	0.2385653
10.575	0.2389413
10.58	0.239208
10.585	0.2394562
10.59	0.2398908
10.595	0.2403636
10.6	0.2409878
10.605	0.2416449
10.61	0.2423406
10.615	0.243096
10.62	0.2439796
10.625	0.2448798
10.63	0.2458772
10.635	0.2468785
10.64	0.2471476
10.645	0.2473054
10.65	0.2465058
10.655	0.2456687
10.66	0.2448545
10.665	0.2445177
10.67	0.2442203
10.675	0.244569
10.68	0.2449599
10.685	0.2453607
10.69	0.2452327
10.695	0.2452347
10.7	0.2447566
10.705	0.2440252
10.71	0.2433025
10.715	0.2426134
10.72	0.2418917
10.725	0.2412575
10.73	0.2406161
10.735	0.2399953
10.74	0.2391707
10.745	0.2379711
10.75	0.2366469
10.755	0.2350536
10.76	0.2335383
10.765	0.2320474
10.77	0.2306173
10.775	0.229546
10.78	0.2283407
10.785	0.2272751
10.79	0.2262334
10.795	0.2249353
10.8	0.2237906
10.805	0.2224097
10.81	0.2213867
10.815	0.2202668
10.82	0.2191695
10.825	0.2177868
10.83	0.2163918
10.835	0.2150464
10.84	0.2140601
10.845	0.2135929
10.85	0.2135158
10.855	0.2139618
10.86	0.2144334
10.865	0.214943
10.87	0.21555
10.875	0.2161269
10.88	0.2166803
10.885	0.2171862
10.89	0.2178147
10.895	0.2187412
10.9	0.2194079
10.905	0.220343
10.91	0.2214359
10.915	0.2224256
10.92	0.2233996
10.925	0.224416
10.93	0.2252871
10.935	0.2261601
10.94	0.2270224
10.945	0.2280325
10.95	0.2292464
10.955	0.2303552
10.96	0.2315103
10.965	0.2325237
10.97	0.233487
10.975	0.2343769
10.98	0.2353012
10.985	0.2361875
10.99	0.2370468
10.995	0.2378684
11	0.2387116
11.005	0.2391224
11.01	0.2395187
11.015	0.2391759
11.02	0.2388643
11.025	0.2384605
11.03	0.2382464
11.035	0.2379872
11.04	0.2376864
11.045	0.2367103
11.05	0.2357874
11.055	0.2343617
11.06	0.2329918
11.065	0.2316019
11.07	0.2300886
11.075	0.228358
11.08	0.2266662
11.085	0.2249827
11.09	0.2232822
11.095	0.2212724
11.1	0.2193207
11.105	0.2174921
11.11	0.2156256
11.115	0.2136495
11.12	0.2117356
11.125	0.2097626
11.13	0.2077293
11.135	0.2057961
11.14	0.2039045
11.145	0.2021063
11.15	0.2003514
11.155	0.1986329
11.16	0.1971351
11.165	0.1957281
11.17	0.1943932
11.175	0.1930992
11.18	0.1918538
11.185	0.1905105
11.19	0.1893341
11.195	0.1880871
11.2	0.1868431
11.205	0.1854769
11.21	0.1843349
11.215	0.1831698
11.22	0.1824807
11.225	0.1818356
11.23	0.1812854
11.235	0.1806947
11.24	0.180147
11.245	0.1794975
11.25	0.1792722
11.255	0.1788303
11.26	0.1786741
11.265	0.1783211
11.27	0.1780738
11.275	0.1781454
11.28	0.1783506
11.285	0.1784682
11.29	0.1785433
11.295	0.1786776
11.3	0.1790228
11.305	0.1791655
11.31	0.1792647
11.315	0.1793463
11.32	0.1795202
11.325	0.1800722
11.33	0.1806873
11.335	0.1814344
11.34	0.1819511
11.345	0.1823621
11.35	0.1824658
11.355	0.182368
11.36	0.1820885
11.365	0.1816299
11.37	0.1809864
11.375	0.1805235
11.38	0.1800642
11.385	0.1798827
11.39	0.1799283
11.395	0.1798429
11.4	0.1797986
11.405	0.1797752
11.41	0.1799056
11.415	0.1801136
11.42	0.1807215
11.425	0.1818027
11.43	0.1833849
11.435	0.1852804
11.44	0.1869877
11.445	0.1887007
11.45	0.1905657
11.455	0.1924367
11.46	0.1944276
11.465	0.1964294
11.47	0.1985028
11.475	0.2004477
11.48	0.2019919
11.485	0.2035689
11.49	0.2052577
11.495	0.2069413
11.5	0.2085955
11.505	0.2102149
11.51	0.2119029
11.515	0.2136197
11.52	0.2153483
11.525	0.2170671
11.53	0.218092
11.535	0.2190278
11.54	0.219695
11.545	0.2204759
11.55	0.2213548
11.555	0.2223934
11.56	0.223732
11.565	0.2251856
11.57	0.2267326
11.575	0.2283546
11.58	0.2295748
11.585	0.2307099
11.59	0.2314079
11.595	0.2318637
11.6	0.2323971
11.605	0.2329403
11.61	0.2334842
11.615	0.2340248
11.62	0.2345713
11.625	0.2346588
11.63	0.2340402
11.635	0.2325531
11.64	0.2305202
11.645	0.2285733
11.65	0.2265871
11.655	0.2244343
11.66	0.2222476
11.665	0.2200113
11.67	0.2177419
11.675	0.2154655
11.68	0.2131437
11.685	0.2109425
11.69	0.2086219
11.695	0.2060842
11.7	0.2035933
11.705	0.2010781
11.71	0.1986971
11.715	0.1963318
11.72	0.19391
11.725	0.1914591
11.73	0.1889179
11.735	0.1867891
11.74	0.1847029
11.745	0.1827983
11.75	0.1808879
11.755	0.1787551
11.76	0.1765488
11.765	0.1737125
11.77	0.1708154
11.775	0.1678022
11.78	0.1648061
11.785	0.1620712
11.79	0.1593721
11.795	0.156941
11.8	0.1546094
11.805	0.1521445
11.81	0.1496831
11.815	0.147167
11.82	0.1446105
11.825	0.1419951
11.83	0.1397075
11.835	0.138039
11.84	0.1370983
11.845	0.1364702
11.85	0.1358901
11.855	0.1353587
11.86	0.1349452
11.865	0.1345923
11.87	0.1344456
11.875	0.1343612
11.88	0.1342595
11.885	0.1343176
11.89	0.1344136
11.895	0.1345337
11.9	0.1348015
11.905	0.1348433
11.91	0.1347714
11.915	0.1342361
11.92	0.1336094
11.925	0.1329729
11.93	0.1323445
11.935	0.131862
11.94	0.131346
11.945	0.1308403
11.95	0.1302848
11.955	0.1297139
11.96	0.1292946
11.965	0.1288905
11.97	0.1289076
11.975	0.1287533
11.98	0.1286072
11.985	0.1283216
11.99	0.1280407
11.995	0.12773
12	0.1274314
12.005	0.127166
12.01	0.1269565
12.015	0.1266822
12.02	0.1263827
12.025	0.1261159
12.03	0.1257808
12.035	0.1254745
12.04	0.1250819
12.045	0.1246809
12.05	0.1244068
12.055	0.1239857
12.06	0.12342
12.065	0.122811
12.07	0.1220926
12.075	0.1209485
12.08	0.1196748
12.085	0.1184005
12.09	0.1168862
12.095	0.1153672
12.1	0.1138895
12.105	0.1124187
12.11	0.1110818
12.115	0.1098371
12.12	0.1088789
12.125	0.1079244
12.13	0.1070172
12.135	0.1060568
12.14	0.1048168
12.145	0.1034821
12.15	0.1020817
12.155	0.1007012
12.16	0.09930108
12.165	0.09789175
12.17	0.09667292
12.175	0.09547771
12.18	0.09457722
12.185	0.09370232
12.19	0.09291382
12.195	0.09217016
12.2	0.09147444
12.205	0.09074608
12.21	0.09006535
12.215	0.08939548
12.22	0.08870723
12.225	0.0880201
12.23	0.08722449
12.235	0.08652171
12.24	0.08576307
12.245	0.08506572
12.25	0.08465574
12.255	0.08550135
12.26	0.08706643
12.265	0.0901193
12.27	0.09316749
12.275	0.09617188
12.28	0.09937015
12.285	0.1025469
12.29	0.1056447
12.295	0.1087944
12.3	0.1118934
12.305	0.1149347
12.31	0.1179499
12.315	0.1208811
12.32	0.1237451
12.325	0.1265094
12.33	0.1292373
12.335	0.1320735
12.34	0.135196
12.345	0.1385316
12.35	0.1420199
12.355	0.1454757
12.36	0.1488345
12.365	0.1521853
12.37	0.1554579
12.375	0.1584155
12.38	0.1613274
12.385	0.1642053
12.39	0.1670551
12.395	0.1699188
12.4	0.172678
12.405	0.1753741
12.41	0.1780491
12.415	0.1807722
12.42	0.1836444
12.425	0.1866809
12.43	0.1900188
12.435	0.193321
12.44	0.1965498
12.445	0.1997233
12.45	0.202854
12.455	0.2057004
12.46	0.2074583
12.465	0.2086986
12.47	0.2087458
12.475	0.2087542
12.48	0.2087666
12.485	0.2087527
12.49	0.2087556
12.495	0.208806
12.5	0.2088468
12.505	0.2089302
12.51	0.2089878
12.515	0.2089558
12.52	0.2089493
12.525	0.2089423
12.53	0.2089706
12.535	0.2090044
12.54	0.2087985
12.545	0.2081929
12.55	0.2073961
12.555	0.2063753
12.56	0.2053403
12.565	0.2043682
12.57	0.2032955
12.575	0.2022533
12.58	0.2013165
12.585	0.2003132
12.59	0.1990793
12.595	0.1977941
12.6	0.1964085
12.605	0.1950421
12.61	0.1936665
12.615	0.1922596
12.62	0.1906947
12.625	0.1888339
12.63	0.1866089
12.635	0.1836921
12.64	0.1807281
12.645	0.1777298
12.65	0.1746795
12.655	0.1715516
12.66	0.1685154
12.665	0.1660918
12.67	0.1639634
12.675	0.1625662
12.68	0.1612152
12.685	0.159858
12.69	0.1584955
12.695	0.1570717
12.7	0.1554749
12.705	0.1538839
12.71	0.1520286
12.715	0.1501817
12.72	0.148382
12.725	0.1464947
12.73	0.1446613
12.735	0.1427427
12.74	0.140843
12.745	0.139075
12.75	0.137549
12.755	0.1360509
12.76	0.1346499
12.765	0.1331541
12.77	0.13146
12.775	0.1298225
12.78	0.1280635
12.785	0.1262489
12.79	0.1246011
12.795	0.1232167
12.8	0.1219431
12.805	0.1207985
12.81	0.1196613
12.815	0.1185301
12.82	0.1174384
12.825	0.1162679
12.83	0.1150834
12.835	0.1140707
12.84	0.1135494
12.845	0.1130283
12.85	0.1124965
12.855	0.1119644
12.86	0.1114592
12.865	0.1111794
12.87	0.1110419
12.875	0.1109146
12.88	0.1110397
12.885	0.1111474
12.89	0.1112426
12.895	0.1117129
12.9	0.1122985
12.905	0.1131251
12.91	0.1139531
12.915	0.1149733
12.92	0.1159348
12.925	0.1169158
12.93	0.1179433
12.935	0.118782
12.94	0.1196677
12.945	0.1204167
12.95	0.1211873
12.955	0.1219889
12.96	0.1228728
12.965	0.123777
12.97	0.1247311
12.975	0.1257662
12.98	0.1268152
12.985	0.1279953
12.99	0.1291711
12.995	0.1300891
13	0.1308864
13.005	0.1315616
13.01	0.1320586
13.015	0.1325067
13.02	0.1330265
13.025	0.1334921
13.03	0.1341048
13.035	0.1348524
13.04	0.1356497
13.045	0.1364535
13.05	0.1372845
13.055	0.1381227
13.06	0.1389933
13.065	0.1398554
13.07	0.1403993
13.075	0.1407
13.08	0.1411131
13.085	0.1411616
13.09	0.1411195
13.095	0.1411175
13.1	0.1406273
13.105	0.1399752
13.11	0.1391211
13.115	0.1382151
13.12	0.1373154
13.125	0.1364207
13.13	0.1355085
13.135	0.1345787
13.14	0.1338688
13.145	0.1331598
13.15	0.1325243
13.155	0.1318839
13.16	0.1312642
13.165	0.1306697
13.17	0.1300955
13.175	0.1295422
13.18	0.128986
13.185	0.128534
13.19	0.1279126
13.195	0.1275079
13.2	0.1272333
13.205	0.1270412
13.21	0.1269237
13.215	0.1269583
13.22	0.1271206
13.225	0.1271905
13.23	0.1272939
13.235	0.1273287
13.24	0.1274424
13.245	0.1282203
13.25	0.1292345
13.255	0.1304243
13.26	0.1315929
13.265	0.1326928
13.27	0.1338013
13.275	0.1349909
13.28	0.1363153
13.285	0.1373381
13.29	0.138516
13.295	0.1397936
13.3	0.1409925
13.305	0.1423051
13.31	0.1437504
13.315	0.1454662
13.32	0.1472872
13.325	0.1492139
13.33	0.1511286
13.335	0.1530272
13.34	0.1549124
13.345	0.1565136
13.35	0.1580924
13.355	0.159632
13.36	0.1611655
13.365	0.1626083
13.37	0.163975
13.375	0.1653111
13.38	0.166618
13.385	0.1679153
13.39	0.1689857
13.395	0.17017
13.4	0.1710538
13.405	0.1719476
13.41	0.172807
13.415	0.1735823
13.42	0.1744231
13.425	0.1751662
13.43	0.1759761
13.435	0.1767876
13.44	0.1776108
13.445	0.1783079
13.45	0.178047
13.455	0.1775402
13.46	0.1766931
13.465	0.175978
13.47	0.1752854
13.475	0.1745564
13.48	0.1738849
13.485	0.1732009
13.49	0.1726703
13.495	0.1721399
13.5	0.1716037
13.505	0.1711181
13.51	0.1706969
13.515	0.1702353
13.52	0.1694316
13.525	0.168453
13.53	0.1672158
13.535	0.1659675
13.54	0.1647253
13.545	0.1634766
13.55	0.1624053
13.555	0.1613099
13.56	0.1602227
13.565	0.1591184
13.57	0.1580841
13.575	0.1570743
13.58	0.1561251
13.585	0.1552666
13.59	0.1544169
13.595	0.1536922
13.6	0.1528018
13.605	0.1520415
13.61	0.1512309
13.615	0.1504315
13.62	0.149873
13.625	0.1490363
13.63	0.1483763
13.635	0.1475035
13.64	0.146588
13.645	0.1456774
13.65	0.1448995
13.655	0.1447432
13.66	0.1445003
13.665	0.1444949
13.67	0.1441776
13.675	0.1438568
13.68	0.1435797
13.685	0.1432707
13.69	0.1429545
13.695	0.142534
13.7	0.1422368
13.705	0.1418197
13.71	0.1414028
13.715	0.1409964
13.72	0.140509
13.725	0.1402317
13.73	0.1400559
13.735	0.140037
13.74	0.1400956
13.745	0.1400238
13.75	0.1398991
13.755	0.1397335
13.76	0.139644
13.765	0.1396058
13.77	0.1395725
13.775	0.139488
13.78	0.1393937
13.785	0.1392692
13.79	0.1389242
13.795	0.1386371
13.8	0.1383574
13.805	0.1382496
13.81	0.1381549
13.815	0.1381008
13.82	0.1380513
13.825	0.1375956
13.83	0.1373038
13.835	0.1365992
13.84	0.1360329
13.845	0.135521
13.85	0.1350006
13.855	0.1344863
13.86	0.133907
13.865	0.1334949
13.87	0.1336749
13.875	0.1339874
13.88	0.1346021
13.885	0.135162
13.89	0.1356932
13.895	0.1363264
13.9	0.1370235
13.905	0.1375774
13.91	0.1382351
13.915	0.1387892
13.92	0.139318
13.925	0.1399106
13.93	0.1405451
13.935	0.1412076
13.94	0.1419003
13.945	0.142435
13.95	0.1431069
13.955	0.1438909
13.96	0.1445684
13.965	0.1450798
13.97	0.145497
13.975	0.145984
13.98	0.1464762
13.985	0.1470813
13.99	0.1475512
13.995	0.1481887
14	0.148678
14.005	0.1491485
14.01	0.1494844
14.015	0.1498914
14.02	0.1502751
14.025	0.1507141
14.03	0.1513411
14.035	0.1519778
14.04	0.1528348
14.045	0.1537894
14.05	0.1546752
14.055	0.1556073
14.06	0.1563503
14.065	0.157092
14.07	0.1578531
14.075	0.1575688
14.08	0.1574542
14.085	0.1568826
14.09	0.1564775
14.095	0.1560974
14.1	0.1555208
14.105	0.1549418
14.11	0.1543896
14.115	0.1538608
14.12	0.1534407
14.125	0.1530556
14.13	0.1527418
14.135	0.1523515
14.14	0.151886
14.145	0.1513751
14.15	0.1510633
14.155	0.1506567
14.16	0.1501023
14.165	0.1496063
14.17	0.1492297
14.175	0.1488717
14.18	0.148359
14.185	0.1478593
14.19	0.1471776
14.195	0.1465934
14.2	0.1459192
14.205	0.1453344
14.21	0.1447581
14.215	0.144252
14.22	0.1435892
14.225	0.1429347
14.23	0.1421569
14.235	0.1414144
14.24	0.1407825
14.245	0.1401478	#1 JL BL4 
14.25	0.1393667
14.255	0.1387
14.26	0.137933
14.265	0.1373137
14.27	0.136843
14.275	0.1363505
14.28	0.1365107
14.285	0.1362916
14.29	0.1362249
14.295	0.1358732
14.3	0.1355461
14.305	0.1353761
14.31	0.1352179
14.315	0.1349452
14.32	0.134548
14.325	0.1340451
14.33	0.1334842
14.335	0.1327779
14.34	0.1321308
14.345	0.1315147
14.35	0.1308871
14.355	0.1299667
14.36	0.129108
14.365	0.1283635
14.37	0.1276654
14.375	0.1269079
14.38	0.1263444
14.385	0.1258733
14.39	0.1254969
14.395	0.1252442
14.4	0.1250013
14.405	0.1248226
14.41	0.1248367
14.415	0.1248598
14.42	0.1250221
14.425	0.1252829
14.43	0.1255733
14.435	0.1259342
14.44	0.126222
14.445	0.1262236
14.45	0.1262164
14.455	0.1261724
14.46	0.1259642
14.465	0.1258106
14.47	0.1257388
14.475	0.1254196
14.48	0.1251103
14.485	0.1247026
14.49	0.1245429
14.495	0.1245198
14.5	0.1245769
14.505	0.1245837
14.51	0.1245102
14.515	0.1244463
14.52	0.1244871
14.525	0.1246057
14.53	0.1247642
14.535	0.1251692
14.54	0.1256293
14.545	0.1260391
14.55	0.1264935
14.555	0.1270504
14.56	0.1277931
14.565	0.128519
14.57	0.1291766
14.575	0.1297575
14.58	0.1303787
14.585	0.1306712
14.59	0.1309674
