Interval=	0.005 s
ExcelDateTime=	4.6085552254629445e+004	3/4/2026 13:15:14.799984
TimeFormat=	StartOfBlock
DateFormat=	
ChannelTitle=	RMS Biceps
Range=	0.18 mV
11.95	0.0182887
11.955	0.01818399
11.96	0.01808359
11.965	0.01795225
11.97	0.01780673
11.975	0.01764897
11.98	0.01749834
11.985	0.01734842
11.99	0.01718998
11.995	0.01705447
12	0.01695656
12.005	0.01688327
12.01	0.01682277
12.015	0.01676466
12.02	0.01670832
12.025	0.01664312
12.03	0.01658768
12.035	0.01656824
12.04	0.01655601
12.045	0.01653922
12.05	0.01652273
12.055	0.01650845
12.06	0.01648634
12.065	0.01647411
12.07	0.01646879
12.075	0.01646355
12.08	0.01646191
12.085	0.01644587
12.09	0.01641935
12.095	0.01640797
12.1	0.01639725
12.105	0.01638792
12.11	0.01639111
12.115	0.01639538
12.12	0.01640298
12.125	0.01640732
12.13	0.01640998
12.135	0.01641292
12.14	0.01643522
12.145	0.01646952
12.15	0.01650991
12.155	0.01655038
12.16	0.01656984
12.165	0.01657546
12.17	0.0166174
12.175	0.01667083
12.18	0.01672828
12.185	0.01678634
12.19	0.01684592
12.195	0.01690786
12.2	0.0169565
12.205	0.01698757
12.21	0.01701323
12.215	0.01704186
12.22	0.01707173
12.225	0.01709385
12.23	0.01711568
12.235	0.01713636
12.24	0.01715276
12.245	0.01717389
12.25	0.01719305
12.255	0.01721199
12.26	0.01717034
12.265	0.01711545
12.27	0.01705195
12.275	0.01697829
12.28	0.01690388
12.285	0.01682979
12.29	0.01676234
12.295	0.01670684
12.3	0.0166347
12.305	0.01655833
12.31	0.01648316
12.315	0.01641546
12.32	0.01635287
12.325	0.01628974
12.33	0.01625157
12.335	0.01622074
12.34	0.01618912
12.345	0.01615252
12.35	0.01611546
12.355	0.01607453
12.36	0.01603444
12.365	0.01599472
12.37	0.01596404
12.375	0.01588786
12.38	0.01579671
12.385	0.01574322
12.39	0.01570826
12.395	0.01566979
12.4	0.01563279
12.405	0.01560449
12.41	0.01557978
12.415	0.01555983
12.42	0.01553811
12.425	0.01551505
12.43	0.01549935
12.435	0.01548948
12.44	0.01548261
12.445	0.01547852
12.45	0.01546434
12.455	0.01544067
12.46	0.01541912
12.465	0.01544654
12.47	0.01547881
12.475	0.01550897
12.48	0.01554265
12.485	0.01557692
12.49	0.01562443
12.495	0.01569294
12.5	0.01575022
12.505	0.01580578
12.51	0.01586582
12.515	0.01593363
12.52	0.01602462
12.525	0.01614715
12.53	0.0162577
12.535	0.01631471
12.54	0.0163581
12.545	0.01639946
12.55	0.01644616
12.555	0.01649405
12.56	0.01654307
12.565	0.01659138
12.57	0.01664809
12.575	0.01669825
12.58	0.016771
12.585	0.01685233
12.59	0.01686818
12.595	0.01685366
12.6	0.01684202
12.605	0.01682992
12.61	0.01681164
12.615	0.0167978
12.62	0.01678893
12.625	0.01680414
12.63	0.01683301
12.635	0.0168624
12.64	0.01688706
12.645	0.01690813
12.65	0.01692933
12.655	0.01695692
12.66	0.01699244
12.665	0.0170257
12.67	0.01705921
12.675	0.01709727
12.68	0.01714049
12.685	0.01718587
12.69	0.0172321
12.695	0.01725672
12.7	0.01724674
12.705	0.01723324
12.71	0.01722488
12.715	0.01722624
12.72	0.01721498
12.725	0.01716015
12.73	0.01704989
12.735	0.01696783
12.74	0.01691276
12.745	0.0168666
12.75	0.01682637
12.755	0.01678333
12.76	0.01673755
12.765	0.01669063
12.77	0.01664263
12.775	0.0165909
12.78	0.01655086
12.785	0.01653468
12.79	0.01652196
12.795	0.01653785
12.8	0.01656532
12.805	0.01659421
12.81	0.01662053
12.815	0.01665145
12.82	0.01669888
12.825	0.01674132
12.83	0.01673542
12.835	0.01670744
12.84	0.01667713
12.845	0.01664798
12.85	0.01662098
12.855	0.01660145
12.86	0.01657935
12.865	0.01655403
12.87	0.0165275
12.875	0.01650199
12.88	0.01647606
12.885	0.01645399
12.89	0.01643647
12.895	0.0164169
12.9	0.01640789
12.905	0.01641571
12.91	0.01643088
12.915	0.01644576
12.92	0.01643361
12.925	0.01642191
12.93	0.01642952
12.935	0.01644967
12.94	0.01642171
12.945	0.01643874
12.95	0.0164708
12.955	0.01649712
12.96	0.01652533
12.965	0.01655387
12.97	0.01658375
12.975	0.016614
12.98	0.01664609
12.985	0.01666595
12.99	0.01664554
12.995	0.01661961
13	0.01659873
13.005	0.01658213
13.01	0.01656103
13.015	0.01654592
13.02	0.01653328
13.025	0.01648604
13.03	0.01643653
13.035	0.01641456
13.04	0.01639552
13.045	0.01637174
13.05	0.01635107
13.055	0.01632939
13.06	0.01628985
13.065	0.01626509
13.07	0.0162494
13.075	0.0162346
13.08	0.01621758
13.085	0.0162006
13.09	0.01621244
13.095	0.01624182
13.1	0.01627608
13.105	0.01630833
13.11	0.01633708
13.115	0.01636399
13.12	0.01640007
13.125	0.0164495
13.13	0.01653852
13.135	0.01665649
13.14	0.01678493
13.145	0.01693875
13.15	0.01700049
13.155	0.01702559
13.16	0.01704715
13.165	0.01706355
13.17	0.0170814
13.175	0.01710346
13.18	0.0171366
13.185	0.01717443
13.19	0.01721437
13.195	0.01726245
13.2	0.01731085
13.205	0.01736348
13.21	0.01741284
13.215	0.01746224
13.22	0.01752798
13.225	0.01759897
13.23	0.01768595
13.235	0.01778182
13.24	0.0178788
13.245	0.01797609
13.25	0.01807689
13.255	0.01817511
13.26	0.01829141
13.265	0.0184263
13.27	0.01853326
13.275	0.01862966
13.28	0.01872969
13.285	0.01883346
13.29	0.01895648
13.295	0.01902307
13.3	0.01904389
13.305	0.01906829
13.31	0.01909203
13.315	0.01915981
13.32	0.01923241
13.325	0.01928968
13.33	0.01934969
13.335	0.01934868
13.34	0.01930459
13.345	0.01925745
13.35	0.01921019
13.355	0.01920637
13.36	0.01922496
13.365	0.01924874
13.37	0.01927783
13.375	0.01931411
13.38	0.01934152
13.385	0.01935232
13.39	0.01936982
13.395	0.01938825
13.4	0.01942364
13.405	0.01951517
13.41	0.01960794
13.415	0.01970402
13.42	0.01980109
13.425	0.01986375
13.43	0.01990975
13.435	0.01996017
13.44	0.02001654
13.445	0.02006466
13.45	0.02015358
13.455	0.02023946
13.46	0.02032625
13.465	0.02038133
13.47	0.02043862
13.475	0.02051205
13.48	0.02059094
13.485	0.02066369
13.49	0.02074405
13.495	0.02079119
13.5	0.02085603
13.505	0.02095792
13.51	0.02104897
13.515	0.02114469
13.52	0.0211683
13.525	0.02118489
13.53	0.02122134
13.535	0.02125826
13.54	0.0213235
13.545	0.02140656
13.55	0.02148813
13.555	0.02156964
13.56	0.021654
13.565	0.02173017
13.57	0.02181212
13.575	0.02189095
13.58	0.02203729
13.585	0.02220673
13.59	0.02238444
13.595	0.02254268
13.6	0.02270496
13.605	0.02287327
13.61	0.02294945
13.615	0.02300729
13.62	0.02306187
13.625	0.02311702
13.63	0.02318643
13.635	0.02326403
13.64	0.02335498
13.645	0.02342104
13.65	0.02350806
13.655	0.02353133
13.66	0.02359744
13.665	0.02367333
13.67	0.02376344
13.675	0.02382469
13.68	0.02387814
13.685	0.02392852
13.69	0.02398043
13.695	0.02401052
13.7	0.02406576
13.705	0.02412706
13.71	0.02421122
13.715	0.02431309
13.72	0.02441421
13.725	0.02454394
13.73	0.02467654
13.735	0.02478793
13.74	0.02489416
13.745	0.02500032
13.75	0.02512453
13.755	0.02527775
13.76	0.02543211
13.765	0.02557637
13.77	0.02572122
13.775	0.02585225
13.78	0.02598391
13.785	0.02598714
13.79	0.0259569
13.795	0.02592004
13.8	0.02588661
13.805	0.02584565
13.81	0.02577309
13.815	0.02575209
13.82	0.02575276
13.825	0.02575537
13.83	0.02576107
13.835	0.02576233
13.84	0.02577341
13.845	0.02575125
13.85	0.02574934
13.855	0.02573149
13.86	0.02574464
13.865	0.02568296
13.87	0.025603
13.875	0.02551873
13.88	0.02546902
13.885	0.02542786
13.89	0.02539012
13.895	0.02535297
13.9	0.02534007
13.905	0.02530449
13.91	0.02527146
13.915	0.02516024
13.92	0.02502183
13.925	0.02489097
13.93	0.02476185
13.935	0.02463331
13.94	0.02451615
13.945	0.02440155
13.95	0.02428503
13.955	0.02413167
13.96	0.02392182
13.965	0.02369867
13.97	0.02347552
13.975	0.02325951
13.98	0.02305026
13.985	0.02286006
13.99	0.02275416
13.995	0.02267612
14	0.02260802
14.005	0.02254432
14.01	0.02248504
14.015	0.0224432
14.02	0.02238389
14.025	0.02230217
14.03	0.02221651
14.035	0.02212346
14.04	0.02204103
14.045	0.0219462
14.05	0.02191739
14.055	0.02187393
14.06	0.02181309
14.065	0.02175019
14.07	0.02173184
14.075	0.02171784
14.08	0.02170966
14.085	0.0216598
14.09	0.02162063
14.095	0.02159541
14.1	0.02157121
14.105	0.02151768
14.11	0.0214779
14.115	0.02143214
14.12	0.02143824
14.125	0.02145104
14.13	0.02143284
14.135	0.02141883
14.14	0.02140382
14.145	0.02138366
14.15	0.02136472
14.155	0.02134656
14.16	0.02134413
14.165	0.02137125
14.17	0.02140753
14.175	0.02147972
14.18	0.02156026
14.185	0.02164276
14.19	0.02168187
14.195	0.02169554
14.2	0.02169193
14.205	0.02167725
14.21	0.0216634
14.215	0.0216543
14.22	0.02164736
14.225	0.02169795
14.23	0.02180562
14.235	0.02193975
14.24	0.02207838
14.245	0.02226866
14.25	0.0224524
14.255	0.02255061
14.26	0.02265866
14.265	0.02278677
14.27	0.02291104
14.275	0.02304573
14.28	0.02320686
14.285	0.02337676
14.29	0.02359494
14.295	0.02378271
14.3	0.02393805
14.305	0.02411029
14.31	0.024296
14.315	0.02451013
14.32	0.02472377
14.325	0.02493928
14.33	0.02519556
14.335	0.0254906
14.34	0.0257697
14.345	0.02611352
14.35	0.02651704
14.355	0.02691288
14.36	0.02752087
14.365	0.02846049
14.37	0.02949526
14.375	0.03070441
14.38	0.03184808
14.385	0.03293209
14.39	0.03417267
14.395	0.03540056
14.4	0.03659384
14.405	0.03779297
14.41	0.03898913
14.415	0.04023341
14.42	0.04145183
14.425	0.04265485
14.43	0.04376386
14.435	0.04480679
14.44	0.04581133
14.445	0.04679178
14.45	0.04781732
14.455	0.04893928
14.46	0.05009473
14.465	0.05121989
14.47	0.05231786
14.475	0.05356602
14.48	0.05576515
14.485	0.05794835
14.49	0.06051898
14.495	0.06299888
14.5	0.0654206
14.505	0.06776837
14.51	0.07012952
14.515	0.07241698
14.52	0.07461386
14.525	0.07675256
14.53	0.07900833
14.535	0.08139826
14.54	0.08370398
14.545	0.08595436
14.55	0.08816842
14.555	0.09029647
14.56	0.09240268
14.565	0.09433887
14.57	0.09603457
14.575	0.09762585
14.58	0.099066
14.585	0.1004779
14.59	0.1018963
14.595	0.1032625
14.6	0.1045987
14.605	0.1059315
14.61	0.1072649
14.615	0.1087886
14.62	0.1102305
14.625	0.1117701
14.63	0.1132741
14.635	0.1147887
14.64	0.1162982
14.645	0.1177936
14.65	0.1192885
14.655	0.120722
14.66	0.1220884
14.665	0.1234837
14.67	0.1249174
14.675	0.1264473
14.68	0.1278152
14.685	0.1283264
14.69	0.1287627
14.695	0.1287703
14.7	0.1287506
14.705	0.1287013
14.71	0.1286479
14.715	0.128485
14.72	0.1283182
14.725	0.1281575
14.73	0.1280762
14.735	0.1277788
14.74	0.1272477
14.745	0.1267199
14.75	0.1261894
14.755	0.1255888
14.76	0.1249933
14.765	0.1243668
14.77	0.1237871
14.775	0.1232916
14.78	0.1228431
14.785	0.1224473
14.79	0.1220591
14.795	0.1216292
14.8	0.1210954
14.805	0.1206109
14.81	0.1201247
14.815	0.119568
14.82	0.118604
14.825	0.1176858
14.83	0.1165237
14.835	0.1153604
14.84	0.1141933
14.845	0.1129933
14.85	0.111806
14.855	0.1106197
14.86	0.1093823
14.865	0.108091
14.87	0.1066233
14.875	0.1050235
14.88	0.1031252
14.885	0.1013704
14.89	0.1001422
14.895	0.09896173
14.9	0.0980348
14.905	0.09712192
14.91	0.09624929
14.915	0.09539273
14.92	0.09466202
14.925	0.09392818
14.93	0.09319371
14.935	0.09224688
14.94	0.09147287
14.945	0.09077801
14.95	0.09008912
14.955	0.08938723
14.96	0.08873297
14.965	0.08820196
14.97	0.08767787
14.975	0.08713681
14.98	0.0865738
14.985	0.08598083
14.99	0.08538246
14.995	0.08483014
15	0.08439092
15.005	0.08406244
15.01	0.0839209
15.015	0.08374206
15.02	0.08372448
15.025	0.08399721
15.03	0.08420037
15.035	0.08458213
15.04	0.08495284
15.045	0.08523194
15.05	0.08556245
15.055	0.08585652
15.06	0.08612164
15.065	0.08649038
15.07	0.08702328
15.075	0.08767809
15.08	0.08839565
15.085	0.08936829
15.09	0.09014003
15.095	0.09089293
15.1	0.0916127
15.105	0.09231684
15.11	0.09301276
15.115	0.09364113
15.12	0.09422543
15.125	0.09468862
15.13	0.09517891
15.135	0.0956564
15.14	0.09637854
15.145	0.09717683
15.15	0.0980477
15.155	0.09898366
15.16	0.09992555
15.165	0.1008595
15.17	0.1015655
15.175	0.1022544
15.18	0.1029439
15.185	0.1036323
15.19	0.1042909
15.195	0.1049594
15.2	0.1055396
15.205	0.1059862
15.21	0.106419
15.215	0.1063969
15.22	0.1063826
15.225	0.1062223
15.23	0.1060638
15.235	0.1059476
15.24	0.105826
15.245	0.1057085
15.25	0.1056372
15.255	0.1055071
15.26	0.1053407
15.265	0.1050994
15.27	0.1047878
15.275	0.1043019
15.28	0.1038047
15.285	0.1032742
15.29	0.1025647
15.295	0.1019243
15.3	0.1012572
15.305	0.1007172
15.31	0.1001919
15.315	0.0998254
15.32	0.0995084
15.325	0.09921245
15.33	0.09899706
15.335	0.09872289
15.34	0.09846344
15.345	0.09788374
15.35	0.09709068
15.355	0.09623682
15.36	0.0951917
15.365	0.09412735
15.37	0.09305216
15.375	0.09209217
15.38	0.09116123
15.385	0.09024027
15.39	0.08935884
15.395	0.08849732
15.4	0.08761508
15.405	0.08680906
15.41	0.08606786
15.415	0.08542152
15.42	0.08511703
15.425	0.08482546
15.43	0.08460163
15.435	0.08436864
15.44	0.08409096
15.445	0.08378502
15.45	0.08347721
15.455	0.08316472
15.46	0.08289536
15.465	0.08265433
15.47	0.08249661
15.475	0.08251855
15.48	0.08262432
15.485	0.08282767
15.49	0.08306748
15.495	0.0834145
15.5	0.08376838
15.505	0.08413508
15.51	0.08422144
15.515	0.0843056
15.52	0.08401009
15.525	0.08366867
15.53	0.08329852
15.535	0.08287188
15.54	0.08258235
15.545	0.08226875
15.55	0.08217483
15.555	0.08214229
15.56	0.08230039
15.565	0.08258696
15.57	0.08284807
15.575	0.08311903
15.58	0.0833859
15.585	0.08360104
15.59	0.08377662
15.595	0.0838542
15.6	0.08393361
15.605	0.08395327
15.61	0.08389004
15.615	0.08384373
15.62	0.08362626
15.625	0.08335046
15.63	0.08307532
15.635	0.08280342
15.64	0.08254097
15.645	0.0823876
15.65	0.08225771
15.655	0.08219686
15.66	0.08216241
15.665	0.08211393
15.67	0.08209587
15.675	0.08209112
15.68	0.08178972
15.685	0.08151068
15.69	0.08103189
15.695	0.0805309
15.7	0.08003082
15.705	0.07952634
15.71	0.0790206
15.715	0.07864997
15.72	0.0782644
15.725	0.07806624
15.73	0.07788042
15.735	0.0777192
15.74	0.07758202
15.745	0.07724295
15.75	0.07691102
15.755	0.07650736
15.76	0.07619274
15.765	0.07552456
15.77	0.0748177
15.775	0.07412579
15.78	0.07340054
15.785	0.07266809
15.79	0.0719768
15.795	0.07130609
15.8	0.07070588
15.805	0.07013093
15.81	0.06961154
15.815	0.06913802
15.82	0.06863322
15.825	0.06825215
15.83	0.06792352
15.835	0.06757239
15.84	0.06723015
15.845	0.06691465
15.85	0.06641031
15.855	0.06589939
15.86	0.06520977
15.865	0.06448708
15.87	0.06376798
15.875	0.06299469
15.88	0.0621567
15.885	0.06151404
15.89	0.06086712
15.895	0.06029896
15.9	0.05973986
15.905	0.05918115
15.91	0.05861812
15.915	0.05805923
15.92	0.05750635
15.925	0.05701666
15.93	0.056544
15.935	0.05607504
15.94	0.055627
15.945	0.05518082
15.95	0.05483166
15.955	0.05448421
15.96	0.0542257
15.965	0.0538752
15.97	0.05388739
15.975	0.05391771
15.98	0.05395099
15.985	0.05400092
15.99	0.0540384
15.995	0.05403692
16	0.05406163
16.005	0.05403131
16.01	0.05391347
16.015	0.05379907
16.02	0.05378488
16.025	0.05387873
16.03	0.05387631
16.035	0.05393073
16.04	0.05402264
16.045	0.05411469
16.05	0.05416513
16.055	0.05428168
16.06	0.05444277
16.065	0.05474444
16.07	0.05503844
16.075	0.05532357
16.08	0.055638
16.085	0.0559961
16.09	0.0563653
16.095	0.05671082
16.1	0.05718043
16.105	0.05764663
16.11	0.05819886
16.115	0.05878097
16.12	0.05947786
16.125	0.06018738
16.13	0.06078704
16.135	0.06138465
16.14	0.06201896
16.145	0.06258502
16.15	0.06321329
16.155	0.06385803
16.16	0.06459981
16.165	0.06529619
16.17	0.06606049
16.175	0.06663046
16.18	0.06719485
16.185	0.06774855
16.19	0.06830736
16.195	0.06886117
16.2	0.06946525
16.205	0.07001748
16.21	0.07058535
16.215	0.07119781
16.22	0.07182691
16.225	0.07231899
16.23	0.07266651
16.235	0.07307965
16.24	0.07334669
16.245	0.07358917
16.25	0.0738844
16.255	0.07415612
16.26	0.07455039
16.265	0.07487465
16.27	0.07515303
16.275	0.07540036
16.28	0.07565686
16.285	0.07590752
16.29	0.0761827
16.295	0.07646677
16.3	0.0767699
16.305	0.07695134
16.31	0.07716259
16.315	0.07720775
16.32	0.07720425
16.325	0.07701032
16.33	0.07678317
16.335	0.07661278
16.34	0.07643765
16.345	0.076198
16.35	0.07600632
16.355	0.07574252
16.36	0.0755079
16.365	0.07510749
16.37	0.07470548
16.375	0.07423464
16.38	0.07386957
16.385	0.0735119
16.39	0.07319598
16.395	0.07289174
16.4	0.07259866
16.405	0.07220641
16.41	0.07186425
16.415	0.07153911
16.42	0.07120278
16.425	0.07080606
16.43	0.07046921
16.435	0.07020321
16.44	0.06989294
16.445	0.06966973
16.45	0.06947624
16.455	0.0691696
16.46	0.06887551
16.465	0.06838183
16.47	0.06792389
16.475	0.06750011
16.48	0.06710682
16.485	0.06670842
16.49	0.06635553
16.495	0.06592005
16.5	0.06547055
16.505	0.06498955
16.51	0.06459707
16.515	0.06415488
16.52	0.0638149
16.525	0.06349985
16.53	0.06332023
16.535	0.06317875
16.54	0.06301294
16.545	0.06284776
16.55	0.06273425
16.555	0.06259548
16.56	0.06242558
16.565	0.06218279
16.57	0.06204424
16.575	0.06192213
16.58	0.06193796
16.585	0.06203997
16.59	0.06229175
16.595	0.06270919
16.6	0.06306967
16.605	0.0634079
16.61	0.06380511
16.615	0.06416402
16.62	0.06454284
16.625	0.06489165
16.63	0.06528584
16.635	0.06567978
16.64	0.06611022
16.645	0.06654707
16.65	0.06699219
16.655	0.06738408
16.66	0.06783898
16.665	0.06830213
16.67	0.06885449
16.675	0.06940292
16.68	0.06991049
16.685	0.07041643
16.69	0.07090056
16.695	0.07129419
16.7	0.07172877
16.705	0.07210775
16.71	0.07255315
16.715	0.07298728
16.72	0.0734412
16.725	0.07389419
16.73	0.07436941
16.735	0.07483557
16.74	0.07534808
16.745	0.07588099
16.75	0.07651094
16.755	0.07711989
16.76	0.0777582
16.765	0.0784828
16.77	0.07925958
16.775	0.0800251
16.78	0.08078553
16.785	0.08139521
16.79	0.08180505
16.795	0.08197722
16.8	0.08187935
16.805	0.08182511
16.81	0.08178359
16.815	0.08174668
16.82	0.0816951
16.825	0.08156781
16.83	0.08145985
16.835	0.08133767
16.84	0.08120976
16.845	0.08102411
16.85	0.0808714
16.855	0.0807378
16.86	0.08062871
16.865	0.08050995
16.87	0.08041156
16.875	0.0803232
16.88	0.08024215
16.885	0.08017987
16.89	0.08012028
16.895	0.08007195
16.9	0.0800811
16.905	0.08008679
16.91	0.08014412
16.915	0.08010251
16.92	0.08003296
16.925	0.07991791
16.93	0.0798191
16.935	0.07967905
16.94	0.07950696
16.945	0.07925957	#1 Rest 1 
16.95	0.07897665
16.955	0.07848481
16.96	0.07800631
16.965	0.0774583
16.97	0.07679717
16.975	0.07611908
16.98	0.07539741
16.985	0.07467871
16.99	0.07403296
16.995	0.07354632
17	0.07318074
17.005	0.07298912
17.01	0.07275245
17.015	0.07251958
17.02	0.07227719
17.025	0.07204011
17.03	0.07185068
17.035	0.07166272
17.04	0.07149099
17.045	0.07131984
17.05	0.07120793
17.055	0.07104499
17.06	0.0708542
17.065	0.070678
17.07	0.07049918
17.075	0.07027063
17.08	0.0700199
17.085	0.06975191
17.09	0.06947866
17.095	0.06923386
17.1	0.06917076
17.105	0.06907174
17.11	0.06898696
17.115	0.06892814
17.12	0.0689992
17.125	0.06909784
17.13	0.06928725
17.135	0.06962884
17.14	0.06998354
17.145	0.07046052
17.15	0.07087621
17.155	0.07128879
17.16	0.07185794
17.165	0.07241535
17.17	0.07301475
17.175	0.0737415
17.18	0.07439463
17.185	0.07508148
17.19	0.07572754
17.195	0.07638817
17.2	0.07697574
17.205	0.07757505
17.21	0.07798155
17.215	0.07840942
17.22	0.0788324
17.225	0.07925773
17.23	0.07971663
17.235	0.08017862
17.24	0.08065582
17.245	0.08110037
17.25	0.08157166
17.255	0.08202952
17.26	0.0825064
17.265	0.0829311
17.27	0.08336126
17.275	0.08379104
17.28	0.08424428
17.285	0.08473141
17.29	0.08521901
17.295	0.08570744
17.3	0.08613885
17.305	0.08627606
17.31	0.0864574
17.315	0.08661867
17.32	0.08682581
17.325	0.08693105
17.33	0.08702485
17.335	0.08725054
17.34	0.08731846
17.345	0.08763256
17.35	0.08780541
17.355	0.08806995
17.36	0.0883454
17.365	0.0885548
17.37	0.08874154
17.375	0.0889839
17.38	0.08910333
17.385	0.08929921
17.39	0.0894804
17.395	0.08970314
17.4	0.0898716
17.405	0.09005317
17.41	0.09022412
17.415	0.09051136
17.42	0.09079911
17.425	0.09136655
17.43	0.0919295
17.435	0.09251557
17.44	0.09309112
17.445	0.0937152
17.45	0.09445252
17.455	0.09522452
17.46	0.09595242
17.465	0.09669051
17.47	0.09746058
17.475	0.09852328
17.48	0.09962721
17.485	0.1008736
17.49	0.1020469
17.495	0.1032116
17.5	0.1044379
17.505	0.1056674
17.51	0.1070679
17.515	0.1084716
17.52	0.1098645
17.525	0.1111588
17.53	0.1124687
17.535	0.1138481
17.54	0.1150503
17.545	0.116247
17.55	0.1173544
17.555	0.1184791
17.56	0.1197061
17.565	0.1209654
17.57	0.1222414
17.575	0.1235175
17.58	0.1246738
17.585	0.1258625
17.59	0.1269826
17.595	0.1281196
17.6	0.1292578
17.605	0.130493
17.61	0.131742
17.615	0.1329735
17.62	0.1341924
17.625	0.1354241
17.63	0.1362597
17.635	0.1371436
17.64	0.1379415
17.645	0.1388108
17.65	0.139564
17.655	0.1401801
17.66	0.1407301
17.665	0.1413049
17.67	0.1418579
17.675	0.1424155
17.68	0.1425237
17.685	0.1426389
17.69	0.1426464
17.695	0.1428774
17.7	0.1432699
17.705	0.143694
17.71	0.14412
17.715	0.1444711
17.72	0.1447325
17.725	0.1450615
17.73	0.1453705
17.735	0.1457771
17.74	0.1460636
17.745	0.1462833
17.75	0.1464385
17.755	0.1465328
17.76	0.1466996
17.765	0.1466948
17.77	0.146704
17.775	0.1467093
17.78	0.1467362
17.785	0.14683
17.79	0.1469438
17.795	0.147325
17.8	0.1477674
17.805	0.1484122
17.81	0.1489206
17.815	0.1493909
17.82	0.1499165
17.825	0.1504389
17.83	0.1509105
17.835	0.1515599
17.84	0.1521166
17.845	0.152739
17.85	0.1532659
17.855	0.1538499
17.86	0.1544968
17.865	0.1551299
17.87	0.1557497
17.875	0.1563956
17.88	0.1571965
17.885	0.1581912
17.89	0.1592072
17.895	0.1601234
17.9	0.1607714
17.905	0.1611246
17.91	0.1613584
17.915	0.1615941
17.92	0.1618768
17.925	0.162241
17.93	0.1625343
17.935	0.162834
17.94	0.1629588
17.945	0.1631459
17.95	0.1635501
17.955	0.164026
17.96	0.1642603
17.965	0.1644549
17.97	0.1646969
17.975	0.1648179
17.98	0.164932
17.985	0.1650068
17.99	0.1650523
17.995	0.1651632
18	0.1648533
18.005	0.1644857
18.01	0.1636654
18.015	0.1628851
18.02	0.1622684
18.025	0.1615528
18.03	0.1609083
18.035	0.1602945
18.04	0.1596719
18.045	0.1590849
18.05	0.1584493
18.055	0.1577987
18.06	0.1571794
18.065	0.1565831
18.07	0.1560162
18.075	0.155458
18.08	0.1548569
18.085	0.1539135
18.09	0.1529978
18.095	0.1518698
18.1	0.1508144
18.105	0.1497368
18.11	0.1488115
18.115	0.1478301
18.12	0.1469102
18.125	0.1459421
18.13	0.1448942
18.135	0.1438984
18.14	0.1430175
18.145	0.1422468
18.15	0.1414525
18.155	0.1403204
18.16	0.1393282
18.165	0.1385947
18.17	0.1378632
18.175	0.1370884
18.18	0.1364023
18.185	0.1357823
18.19	0.1352146
18.195	0.1346592
18.2	0.1338857
18.205	0.1333584
18.21	0.1326889
18.215	0.1324143
18.22	0.1321518
18.225	0.1315454
18.23	0.131105
18.235	0.1304985
18.24	0.1298638
18.245	0.1292794
18.25	0.1286969
18.255	0.1281807
18.26	0.127706
18.265	0.1271539
18.27	0.1265148
18.275	0.1258663
18.28	0.1252825
18.285	0.1247038
18.29	0.1243429
18.295	0.1239209
18.3	0.1237213
18.305	0.1235922
18.31	0.1235933
18.315	0.1236433
18.32	0.1238297
18.325	0.1238564
18.33	0.1238533
18.335	0.1238828
18.34	0.1237779
18.345	0.1234663
18.35	0.1231338
18.355	0.1228285
18.36	0.1227232
18.365	0.1222447
18.37	0.1217595
18.375	0.1211426
18.38	0.1207608
18.385	0.1204174
18.39	0.1199862
18.395	0.1194837
18.4	0.1189844
18.405	0.1186613
18.41	0.1183378
18.415	0.1181427
18.42	0.1177348
18.425	0.1173225
18.43	0.1170563
18.435	0.1165458
18.44	0.1161092
18.445	0.1156852
18.45	0.115146
18.455	0.1146617
18.46	0.1140813
18.465	0.1135188
18.47	0.1129755
18.475	0.112481
18.48	0.1119898
18.485	0.1113006
18.49	0.1106533
18.495	0.1099903
18.5	0.1093703
18.505	0.1086232
18.51	0.1077591
18.515	0.1068856
18.52	0.105956
18.525	0.1049637
18.53	0.1040416
18.535	0.103176
18.54	0.1023138
18.545	0.1014825
18.55	0.1007435
18.555	0.0999894
18.56	0.0991551
18.565	0.0983046
18.57	0.09768297
18.575	0.0970516
18.58	0.09653639
18.585	0.09551946
18.59	0.09438406
18.595	0.09319471
18.6	0.09203543
18.605	0.09085953
18.61	0.08951723
18.615	0.08815639
18.62	0.08677738
18.625	0.08553312
18.63	0.08427672
18.635	0.08304763
18.64	0.08197401
18.645	0.08089712
18.65	0.07980738
18.655	0.07881027
18.66	0.0776145
18.665	0.07647779
18.67	0.07529642
18.675	0.07411527
18.68	0.07292227
18.685	0.07171305
18.69	0.07065461
18.695	0.06953566
18.7	0.06840585
18.705	0.06721855
18.71	0.06609887
18.715	0.06502161
18.72	0.06393194
18.725	0.0626876
18.73	0.06146435
18.735	0.06024074
18.74	0.05902366
18.745	0.05777937
18.75	0.05661059
18.755	0.05555022
18.76	0.05450069
18.765	0.05352282
18.77	0.05252793
18.775	0.05154714
18.78	0.05055877
18.785	0.04958798
18.79	0.0491069
18.795	0.04873456
18.8	0.0484699
18.805	0.04820281
18.81	0.04799921
18.815	0.04795514
18.82	0.04793764
18.825	0.04793128
18.83	0.04797179
18.835	0.04801692
18.84	0.04806693
18.845	0.04811693
18.85	0.0481778
18.855	0.04825533
18.86	0.04827004
18.865	0.04845041
18.87	0.04861312
18.875	0.04873838
18.88	0.04886667
18.885	0.04899223
18.89	0.04910472
18.895	0.04922648
18.9	0.04928807
18.905	0.04935488
18.91	0.04944025
18.915	0.04956551
18.92	0.04972032
18.925	0.04989256
18.93	0.05021229
18.935	0.05052374
18.94	0.050818
18.945	0.0509825
18.95	0.05115264
18.955	0.05131271
18.96	0.05126113
18.965	0.05119762
18.97	0.05113727
18.975	0.05112936
18.98	0.05106881
18.985	0.05101735
18.99	0.05093364
18.995	0.05085497
19	0.05076186
19.005	0.05066908
19.01	0.0505892
19.015	0.05039933
19.02	0.05020352
19.025	0.04997755
19.03	0.04974955
19.035	0.04935672
19.04	0.04895529
19.045	0.04852725
19.05	0.04809805
19.055	0.04765798
19.06	0.04718229
19.065	0.04671191
19.07	0.04622359
19.075	0.04575328
19.08	0.04533759
19.085	0.04493056
19.09	0.04448975
19.095	0.04405193
19.1	0.04359104
19.105	0.04322426
19.11	0.0428573
19.115	0.04249779
19.12	0.0420839
19.125	0.04166303
19.13	0.041229
19.135	0.04081435
19.14	0.04040083
19.145	0.0399911
19.15	0.03967133
19.155	0.03934928
19.16	0.03903288
19.165	0.03885588
19.17	0.0386905
19.175	0.03850451
19.18	0.03823359
19.185	0.03802017
19.19	0.0377858
19.195	0.03756987
19.2	0.03736008
19.205	0.03718206
19.21	0.03700533
19.215	0.03679336
19.22	0.03664223
19.225	0.03649882
19.23	0.03636052
19.235	0.03624277
19.24	0.03625657
19.245	0.03625238
19.25	0.03626706
19.255	0.03627556
19.26	0.03629361
19.265	0.03632765
19.27	0.03637715
19.275	0.03646475
19.28	0.03653878
19.285	0.03657275
19.29	0.03661378
19.295	0.03668822
19.3	0.03676219
19.305	0.03683957
19.31	0.03682244
19.315	0.03678318
19.32	0.03673466
19.325	0.03672043
19.33	0.03671998
19.335	0.03665235
19.34	0.0365342
19.345	0.03643897
19.35	0.03635228
19.355	0.03626368
19.36	0.03618517
19.365	0.03610822
19.37	0.03602369
19.375	0.03593528
19.38	0.03586001
19.385	0.03579671
19.39	0.03572862
19.395	0.03567454
19.4	0.03564278
19.405	0.03562414
19.41	0.03556484
19.415	0.03551393
19.42	0.03548229
19.425	0.03544772
19.43	0.03541063
19.435	0.03539042
19.44	0.03532832
19.445	0.03526873
19.45	0.03527371
19.455	0.035294
19.46	0.0353191
19.465	0.03532759
19.47	0.03534893
19.475	0.03537171
19.48	0.03535447
19.485	0.03530965
19.49	0.03528549
19.495	0.03521605
19.5	0.03513014
19.505	0.03504471
19.51	0.03496205
19.515	0.03493951
19.52	0.03493755
19.525	0.03494123
19.53	0.03493793
19.535	0.03490566
19.54	0.03491489
19.545	0.03495018
19.55	0.03493808
19.555	0.03492993
19.56	0.03492288
19.565	0.03486513
19.57	0.03483017
19.575	0.03481363
19.58	0.03479581
19.585	0.03478078
19.59	0.03477432
19.595	0.0347085
19.6	0.0346501
19.605	0.03456636
19.61	0.03446628
19.615	0.03438475
19.62	0.03434827
19.625	0.03436657
19.63	0.03440118
19.635	0.03447484
19.64	0.03455074
19.645	0.03465068
19.65	0.03476177
19.655	0.03478705
19.66	0.0347862
19.665	0.03478224
19.67	0.03481402
19.675	0.03482896
19.68	0.03484804
19.685	0.03485361
19.69	0.03488839
19.695	0.0349353
19.7	0.0349849
19.705	0.03506557
19.71	0.035156
19.715	0.03533364
19.72	0.03552626
19.725	0.03575423
19.73	0.03598614
19.735	0.0362191
19.74	0.03648343
19.745	0.03675893
19.75	0.03703643
19.755	0.03733864
19.76	0.03761317
19.765	0.03788594
19.77	0.03818496
19.775	0.03843946
19.78	0.03866819
19.785	0.03890344
19.79	0.03913003
19.795	0.03938892
19.8	0.03966781
19.805	0.03992201
19.81	0.04018453
19.815	0.0404238
19.82	0.04066971
19.825	0.04082925
19.83	0.04089897
19.835	0.04095735
19.84	0.04095013
19.845	0.04091983
19.85	0.04088376
19.855	0.04083311
19.86	0.0408009
19.865	0.04079585
19.87	0.04079325
19.875	0.04075819
19.88	0.04072772
19.885	0.04069876
19.89	0.0406783
19.895	0.04064976
19.9	0.04059282
19.905	0.04055089
19.91	0.04047061
19.915	0.04039
19.92	0.04016039
19.925	0.03990803
19.93	0.03957918
19.935	0.03923467
19.94	0.03887379
19.945	0.0384768
19.95	0.03806021
19.955	0.03763163
19.96	0.0371925
19.965	0.03676465
19.97	0.03634026
19.975	0.03590664
19.98	0.03549403
19.985	0.03508899
19.99	0.03468767
19.995	0.03434841
20	0.03397695
20.005	0.03361358
20.01	0.03329129
20.015	0.03294033
20.02	0.03261329
20.025	0.0322626
20.03	0.03196502
20.035	0.03171678
20.04	0.0314805
20.045	0.03126627
20.05	0.03106909
20.055	0.03089039
20.06	0.03071662
20.065	0.03055524
20.07	0.03035582
20.075	0.03015827
20.08	0.02995864
20.085	0.02976169
20.09	0.02956021
20.095	0.02937043
20.1	0.02920626
20.105	0.02906483
20.11	0.02892847
20.115	0.02886005
20.12	0.02875744
20.125	0.02875544
20.13	0.02876365
20.135	0.02880133
20.14	0.0288485
20.145	0.02891149
20.15	0.02900587
20.155	0.02911426
20.16	0.02922726
20.165	0.02934512
20.17	0.0294799
20.175	0.02959894
20.18	0.02972073
20.185	0.02983386
20.19	0.02995013
20.195	0.03002395
20.2	0.02995701
20.205	0.02985661
20.21	0.02977587
20.215	0.02962873
20.22	0.02950156
20.225	0.0293831
20.23	0.02927967
20.235	0.02917832
20.24	0.02907086
20.245	0.02896226
20.25	0.02887734
20.255	0.02883653
20.26	0.02877905
20.265	0.02873937
20.27	0.0287077
20.275	0.02867946
20.28	0.02863523
20.285	0.02860703
20.29	0.02858413
20.295	0.02856345
20.3	0.02855548
20.305	0.02850722
20.31	0.02847913
20.315	0.02844395
20.32	0.02832452
20.325	0.02822942
20.33	0.0281384
20.335	0.02805174
20.34	0.02799917
20.345	0.0279422
20.35	0.02788165
20.355	0.02780105
20.36	0.02771739
20.365	0.02763336
20.37	0.02755027
20.375	0.02743397
20.38	0.02735259
20.385	0.02729223
20.39	0.02723783
20.395	0.02718724
20.4	0.02717466
20.405	0.02723985
20.41	0.02736553
20.415	0.02745513
20.42	0.02758202
20.425	0.02771536
20.43	0.02785641
20.435	0.02798814
20.44	0.02811835
20.445	0.02826227
20.45	0.02838665
20.455	0.02849927
20.46	0.02852372
20.465	0.02853001
20.47	0.02849857
20.475	0.02848342
20.48	0.02848567
20.485	0.02849851
20.49	0.02852648
20.495	0.02853492
20.5	0.02853121
20.505	0.02850137
20.51	0.02853787
20.515	0.02854475
20.52	0.02855601
20.525	0.02861654
20.53	0.02866777
20.535	0.02872085
20.54	0.02874631
20.545	0.02877751
20.55	0.02882221
20.555	0.02889335
20.56	0.028977
20.565	0.02905921
20.57	0.02914149
20.575	0.02921705
20.58	0.02931603
20.585	0.02935289
20.59	0.02936714
20.595	0.02942188
20.6	0.02947159
20.605	0.02950887
20.61	0.02955059
20.615	0.02954968
20.62	0.02957469
20.625	0.02959607
20.63	0.02961108
20.635	0.02957886
20.64	0.02956246
20.645	0.02954458
20.65	0.02951484
20.655	0.02949518
20.66	0.02947766
20.665	0.02952122
20.67	0.02958459
20.675	0.02966883
20.68	0.02970971
20.685	0.02973649
20.69	0.02976983
20.695	0.02977455
20.7	0.02979465
20.705	0.0298317
20.71	0.02987986
20.715	0.02982797
20.72	0.02977249
20.725	0.02971593
20.73	0.02965498
20.735	0.02960627
20.74	0.02955013
20.745	0.02951985
20.75	0.02943907
20.755	0.0293432
20.76	0.0291983
20.765	0.02907167
20.77	0.02895453
20.775	0.0288353
20.78	0.02873029
20.785	0.02860194
20.79	0.02850757
20.795	0.02848382
20.8	0.02837175
20.805	0.02824523
20.81	0.02811221
20.815	0.02796924
20.82	0.02785096
20.825	0.02771782
20.83	0.02758577
20.835	0.02746336
20.84	0.02738638
20.845	0.02729839
20.85	0.02721973
20.855	0.02714728
20.86	0.02715168
20.865	0.027169
20.87	0.02714517
20.875	0.02711594
20.88	0.02708223
20.885	0.02708803
20.89	0.02710659
20.895	0.02711281
20.9	0.02713729
20.905	0.02716015
20.91	0.02716955
20.915	0.02718039
20.92	0.02732304
20.925	0.02747361
20.93	0.02762447
20.935	0.02776467
20.94	0.02790283
20.945	0.02805003
20.95	0.0281869
20.955	0.02837075
20.96	0.02855416
20.965	0.02880023
20.97	0.02900989
20.975	0.02920732
20.98	0.02941426
20.985	0.0295954
20.99	0.02978202
20.995	0.02996973
21	0.03001968
21.005	0.0301375
21.01	0.03028543
21.015	0.03044454
21.02	0.03061103
21.025	0.03076919
21.03	0.03094698
21.035	0.03112506
21.04	0.03129284
21.045	0.03143433
21.05	0.03157214
21.055	0.0317001
21.06	0.03182785
21.065	0.03184716
21.07	0.03184868
21.075	0.03186967
21.08	0.03189423
21.085	0.03194041
21.09	0.03200116
21.095	0.03205785
21.1	0.03211728
21.105	0.03217608
21.11	0.03222555
21.115	0.03228001
21.12	0.03233395
21.125	0.03226852
21.13	0.03220629
21.135	0.0321466
21.14	0.03209363
21.145	0.03202626
21.15	0.03194831
21.155	0.03187176
21.16	0.03177054
21.165	0.03171934
21.17	0.03159792
21.175	0.03148268
21.18	0.03139981
21.185	0.03129958
21.19	0.03121189
21.195	0.0311307
21.2	0.03105071
21.205	0.03104327
21.21	0.03100039
21.215	0.03092144
21.22	0.03086779
21.225	0.03080885
21.23	0.03075299
21.235	0.03064356
21.24	0.03053149
21.245	0.03041069
21.25	0.03030338
21.255	0.03020328
21.26	0.03010514
21.265	0.03000967
21.27	0.02993959
21.275	0.02988054
21.28	0.02986259
21.285	0.02984682
21.29	0.02980967
21.295	0.02972043
21.3	0.029634
21.305	0.02954764
21.31	0.029454
21.315	0.0293668
21.32	0.02928695
21.325	0.02926392
21.33	0.02929794
21.335	0.02936493
21.34	0.02943849
21.345	0.0295038
21.35	0.02958011
21.355	0.02968307
21.36	0.02979226
21.365	0.02994239
21.37	0.02999706
21.375	0.0301048
21.38	0.03023926
21.385	0.03030525
21.39	0.03041985
21.395	0.03055975
21.4	0.03070036
21.405	0.03085409
21.41	0.03104982
21.415	0.03124368
21.42	0.03146473
21.425	0.03162365
21.43	0.03181194
21.435	0.032007
21.44	0.03224603
21.445	0.03250015
21.45	0.03276221
21.455	0.03302069
21.46	0.03326409
21.465	0.0334947
21.47	0.03371903
21.475	0.03396574
21.48	0.03423254
21.485	0.03442344
21.49	0.03460835
21.495	0.03478463
21.5	0.03496605
21.505	0.03514055
21.51	0.03532248
21.515	0.03551336
21.52	0.03570373
21.525	0.03588381
21.53	0.03597305
21.535	0.03606972
21.54	0.03611169
21.545	0.03612869
21.55	0.03615117
21.555	0.03617322
21.56	0.03616144
21.565	0.03614438
21.57	0.03613533
21.575	0.03616065
21.58	0.03617423
21.585	0.03614739
21.59	0.03615589
21.595	0.03610292
21.6	0.03603736
21.605	0.03596586
21.61	0.03585833
21.615	0.03567514
21.62	0.03550359
21.625	0.03532727
21.63	0.03517769
21.635	0.03497932
21.64	0.03478229
21.645	0.03456312
21.65	0.03431332
21.655	0.03406623
21.66	0.03381816
21.665	0.0335705
21.67	0.03333843
21.675	0.03313121
21.68	0.0329137
21.685	0.03265006
21.69	0.0324276
21.695	0.03220369
21.7	0.03199528
21.705	0.03179378
21.71	0.03160065
21.715	0.03145558
21.72	0.03129662
21.725	0.03114834
21.73	0.03099303
21.735	0.03088725
21.74	0.03082285
21.745	0.03078985
21.75	0.03078254
21.755	0.03077553
21.76	0.03078149
21.765	0.03080744
21.77	0.03086832
21.775	0.0308511
21.78	0.03084627
21.785	0.03082249
21.79	0.03082635
21.795	0.03084928
21.8	0.03092694
21.805	0.03096085
21.81	0.03100019
21.815	0.03106393
21.82	0.03117511
21.825	0.03128083
21.83	0.03141398
21.835	0.03156112
21.84	0.03174689
21.845	0.03190779
21.85	0.03210401
21.855	0.03231653
21.86	0.03251904
21.865	0.03272138
21.87	0.03292976
21.875	0.03312425
21.88	0.03327095
21.885	0.03342649
21.89	0.03362451
21.895	0.03382191
21.9	0.03401887
21.905	0.03421229
21.91	0.03441053
21.915	0.03460016
21.92	0.03467863
21.925	0.03476212
21.93	0.03482604
21.935	0.03490456
21.94	0.03499878
21.945	0.03501104
21.95	0.03502326
21.955	0.03504231
21.96	0.03506079
21.965	0.03507051
21.97	0.03508813
21.975	0.0350508
21.98	0.03503289
21.985	0.03500742
21.99	0.03503718
21.995	0.03506291
22	0.03504227
22.005	0.03497343
22.01	0.0349316
22.015	0.03489795
22.02	0.03486809
22.025	0.03483765
22.03	0.03480623
22.035	0.0346941
22.04	0.03455964
22.045	0.03438848
22.05	0.0342374
22.055	0.03403354
22.06	0.03383183
22.065	0.03363769
22.07	0.0334745
22.075	0.03331067
22.08	0.03315108
22.085	0.03302018
22.09	0.03290361
22.095	0.03274155
22.1	0.03258653
22.105	0.03243204
22.11	0.03228087
22.115	0.03214488
22.12	0.03200934
22.125	0.03193787
22.13	0.03187311
22.135	0.03181694
22.14	0.0317577
22.145	0.03166454
22.15	0.03161877
22.155	0.03158601
22.16	0.03151774
22.165	0.03144957
22.17	0.03139696
22.175	0.03132855
22.18	0.03128416
22.185	0.03124868
22.19	0.03123436
22.195	0.03113717
22.2	0.03105304
22.205	0.03099726
22.21	0.03097507
22.215	0.03095543
22.22	0.03091086
22.225	0.03086636
22.23	0.03081002
22.235	0.03076667
22.24	0.03081188
22.245	0.03088147
22.25	0.0309759
22.255	0.03109425
22.26	0.03124948
22.265	0.03141815
22.27	0.03164471
22.275	0.03182534
22.28	0.03199955
22.285	0.03216937
22.29	0.03232786
22.295	0.03243601
22.3	0.03256356
22.305	0.03267753
22.31	0.03282731
22.315	0.03294364
22.32	0.03303222
22.325	0.03312596
22.33	0.03322202
22.335	0.03331445
22.34	0.0334165
22.345	0.03351081
22.35	0.03362556
22.355	0.03375339
22.36	0.03385767
22.365	0.03398264
22.37	0.03411236
22.375	0.03419595
22.38	0.03427954
22.385	0.0343732
22.39	0.03448159
22.395	0.03456198
22.4	0.03466678
22.405	0.0347693
22.41	0.03487424
22.415	0.03497587
22.42	0.0350873
22.425	0.0352155
22.43	0.03535412
22.435	0.03550619
22.44	0.03564351
22.445	0.03572302
22.45	0.03580536
22.455	0.03588755
22.46	0.03590454
22.465	0.03597772
22.47	0.0360087
22.475	0.03591834
22.48	0.03581263
22.485	0.03571146
22.49	0.03561237
22.495	0.03553467
22.5	0.03549974
22.505	0.03545854
22.51	0.03539662
22.515	0.03531526
22.52	0.0352503
22.525	0.03521074
22.53	0.03516586
22.535	0.03516808
22.54	0.03519168
22.545	0.03520995
22.55	0.03523552
22.555	0.03528891
22.56	0.03532041
22.565	0.03538485
22.57	0.03545066
22.575	0.03551271
22.58	0.03561095
22.585	0.03571566
22.59	0.03581325
22.595	0.03589817
22.6	0.03599338
22.605	0.03609862
22.61	0.03617544
22.615	0.03624892
22.62	0.03634959
22.625	0.036435
22.63	0.03653393
22.635	0.03659876
22.64	0.03665001
22.645	0.03673901
22.65	0.0368827
22.655	0.03702624
22.66	0.03716722
22.665	0.03734946
22.67	0.03740434
22.675	0.03748687
22.68	0.03763326
22.685	0.03780142
22.69	0.03796605
22.695	0.03813963
22.7	0.03827098
22.705	0.03837037
22.71	0.03848194
22.715	0.03861226
22.72	0.03868641
22.725	0.03876783
22.73	0.03882035
22.735	0.03887822
22.74	0.03888009
22.745	0.03883253
22.75	0.03877396
22.755	0.03873414
22.76	0.03863371
22.765	0.03853953
22.77	0.03840486
22.775	0.03827208
22.78	0.03814007
22.785	0.03802963
22.79	0.03791617
22.795	0.03779958
22.8	0.03769065
22.805	0.03757072
22.81	0.03745778
22.815	0.03737551
22.82	0.03729133
22.825	0.03715793
22.83	0.03702168
22.835	0.03684044
22.84	0.03669367
22.845	0.03655328
22.85	0.03635213
22.855	0.0361056
22.86	0.03581634
22.865	0.03552719
22.87	0.03522396
22.875	0.03499096
22.88	0.03476076
22.885	0.03452638
22.89	0.03429047
22.895	0.0340754
22.9	0.03386355
22.905	0.03368394
22.91	0.03352416
22.915	0.0333607
22.92	0.03319684
22.925	0.03308245
22.93	0.03296647
22.935	0.03287114
22.94	0.03276906
22.945	0.03262862
22.95	0.03257468
22.955	0.0325309
22.96	0.03242027
22.965	0.03234719
22.97	0.03227701
22.975	0.03225817
22.98	0.03225481
22.985	0.03223895
22.99	0.03222706
22.995	0.03222653
23	0.03228315
23.005	0.03234168
23.01	0.03242684
23.015	0.03248842
23.02	0.03254561
23.025	0.03260842
23.03	0.03270249
23.035	0.03282502
23.04	0.032976
23.045	0.03309738
23.05	0.03321781
23.055	0.03336027
23.06	0.03352386
23.065	0.03372097
23.07	0.03392448
23.075	0.03412928
23.08	0.03434271
23.085	0.03453042
23.09	0.03471564
23.095	0.03490284
23.1	0.03505859
23.105	0.035185
23.11	0.03530029
23.115	0.03541518
23.12	0.0355168
23.125	0.03563007
23.13	0.0357413
23.135	0.03585109
23.14	0.03595568
23.145	0.03606044
23.15	0.03622615
23.155	0.03630231
23.16	0.03637569
23.165	0.03648395
23.17	0.03658898
23.175	0.03669473
23.18	0.03679556
23.185	0.03685024
23.19	0.03693509
23.195	0.03690793
23.2	0.0368642
23.205	0.03673098
23.21	0.03658637
23.215	0.03641702
23.22	0.03628468
23.225	0.03613006
23.23	0.03596659
23.235	0.03579664
23.24	0.0355909
23.245	0.0353839
23.25	0.03518121
23.255	0.03499651
23.26	0.03481968
23.265	0.03463179
23.27	0.03441165
23.275	0.03418814
23.28	0.03397537
23.285	0.03373788
23.29	0.03352286
23.295	0.03330772
23.3	0.0330851
23.305	0.03286514
23.31	0.03264942
23.315	0.0324637
23.32	0.03226943
23.325	0.03208741
23.33	0.03187801
23.335	0.03166819
23.34	0.03145399
23.345	0.03125186
23.35	0.0310593
23.355	0.03082771
23.36	0.03064199
23.365	0.03045927
23.37	0.03027593
23.375	0.03009913
23.38	0.02993446
23.385	0.02969212
23.39	0.02948518
23.395	0.0292319
23.4	0.02907963
23.405	0.02893667
23.41	0.02886084
23.415	0.02883519
23.42	0.02882856
23.425	0.02875764
23.43	0.02870618
23.435	0.02866298
23.44	0.02862536
23.445	0.02860189
23.45	0.02857856
23.455	0.0285618
23.46	0.02851451
23.465	0.02846072
23.47	0.02840976
23.475	0.02839279
23.48	0.02835249
23.485	0.02829443
23.49	0.02826869
23.495	0.02823239
23.5	0.0281952
23.505	0.02816804
23.51	0.02814799
23.515	0.02814954
23.52	0.02809979
23.525	0.0280568
23.53	0.02804594
23.535	0.02805155
23.54	0.02808104
23.545	0.02812903
23.55	0.02815668
23.555	0.02816228
23.56	0.02818884
23.565	0.02820853
23.57	0.02822516
23.575	0.02824311
23.58	0.02825717
23.585	0.02822669
23.59	0.02825623
23.595	0.0282772
23.6	0.02835439
23.605	0.02845885
23.61	0.02858384
23.615	0.02867942
23.62	0.02869059
23.625	0.02867803
23.63	0.0287051
23.635	0.02872664
23.64	0.02874425
23.645	0.02874872
23.65	0.02879661
23.655	0.0288818
23.66	0.0289732
23.665	0.02905678
23.67	0.02915191
23.675	0.02925109
23.68	0.0293409
23.685	0.0294556
23.69	0.02957163
23.695	0.02964949
23.7	0.0297321
23.705	0.02984786
23.71	0.02998422
23.715	0.03013325
23.72	0.03026317
23.725	0.03040431
23.73	0.03055319
23.735	0.0306629
23.74	0.03076878
23.745	0.03084036
23.75	0.03088139
23.755	0.03095496
23.76	0.03104069
23.765	0.03112876
23.77	0.03122794
23.775	0.03133208
23.78	0.03145349
23.785	0.03156766
23.79	0.03170763
23.795	0.03184482
23.8	0.03200267
23.805	0.03214016
23.81	0.0322224
23.815	0.03227034
23.82	0.03233298
23.825	0.03243909
23.83	0.03256053
23.835	0.03266763
23.84	0.0327733
23.845	0.03288255
23.85	0.03300698
23.855	0.03307554
23.86	0.03308066
23.865	0.03307055
23.87	0.03307516
23.875	0.03307714
23.88	0.03307502
23.885	0.03309411
23.89	0.03311296
23.895	0.03316549
23.9	0.03323823
23.905	0.03329839
23.91	0.03330384
23.915	0.03325771
23.92	0.03319524
23.925	0.03314737
23.93	0.03310426
23.935	0.03305532
23.94	0.03298671
23.945	0.03292118
23.95	0.0328988
23.955	0.03290869
23.96	0.03287364
23.965	0.03283812
23.97	0.03279946
23.975	0.03275264
23.98	0.03272054
23.985	0.03266847
23.99	0.03262091
23.995	0.03256907
24	0.03251177
24.005	0.03242967
24.01	0.03228765
24.015	0.03216661
24.02	0.03207365
24.025	0.03198295
24.03	0.03187886
24.035	0.03177657
24.04	0.0316857
24.045	0.03161723
24.05	0.03154446
24.055	0.03145536
24.06	0.03139653
24.065	0.03142122
24.07	0.03145301
24.075	0.03148361
24.08	0.03149887
24.085	0.03151933
24.09	0.03150614
24.095	0.03146136
24.1	0.03135492
24.105	0.03124569
24.11	0.03114952
24.115	0.03116513
24.12	0.03123646
24.125	0.03133904
24.13	0.03147083
24.135	0.03164165
24.14	0.03180704
24.145	0.03200027
24.15	0.03218911
24.155	0.0323217
24.16	0.03241917
24.165	0.03253626
24.17	0.03265283
24.175	0.03281257
24.18	0.03297394
24.185	0.03310207
24.19	0.03323641
24.195	0.03340795
24.2	0.03359312
24.205	0.03387824
24.21	0.03416206
24.215	0.03453308
24.22	0.03493008
24.225	0.03530595
24.23	0.03568692
24.235	0.0360736
24.24	0.03644532
24.245	0.03688944
24.25	0.03742241
24.255	0.03807737
24.26	0.03875533
24.265	0.03940715
24.27	0.03996747
24.275	0.04052206
24.28	0.04108652
24.285	0.04168188
24.29	0.0422733
24.295	0.04287064
24.3	0.04348373
24.305	0.04411509
24.31	0.04473577
24.315	0.04534002
24.32	0.0458256
24.325	0.04628744
24.33	0.04670236
24.335	0.0470617
24.34	0.04737032
24.345	0.04766912
24.35	0.04796175
24.355	0.04825975
24.36	0.04856121
24.365	0.04889206
24.37	0.04926499
24.375	0.04964535
24.38	0.04996709
24.385	0.05028873
24.39	0.05062442
24.395	0.05099304
24.4	0.05134701
24.405	0.05168882
24.41	0.05190569
24.415	0.05212892
24.42	0.05228426
24.425	0.05240872
24.43	0.05254017
24.435	0.05265516
24.44	0.05276522
24.445	0.05294125
24.45	0.05300833
24.455	0.05291167
24.46	0.05268069
24.465	0.05241349
24.47	0.05215964
24.475	0.05197646
24.48	0.05181178
24.485	0.0516163
24.49	0.05137132
24.495	0.05111711
24.5	0.05085618
24.505	0.05058857
24.51	0.05033099
24.515	0.0501354
24.52	0.04994845
24.525	0.04982139
24.53	0.0496814
24.535	0.04956475
24.54	0.04949195
24.545	0.04947197
24.55	0.04946859
24.555	0.04947482
24.56	0.04947124
24.565	0.04947631
24.57	0.04944207
24.575	0.04937369
24.58	0.04930519
24.585	0.04926099
24.59	0.04921673
24.595	0.04915485
24.6	0.04899863
24.605	0.04882983
24.61	0.04869718
24.615	0.04864949
24.62	0.04861683
24.625	0.0486349
24.63	0.04866496
24.635	0.04868004
24.64	0.04877699
24.645	0.04889655
24.65	0.04888927
24.655	0.04893312
24.66	0.04908738
24.665	0.04925085
24.67	0.04942787
24.675	0.04958449
24.68	0.04987921
24.685	0.05014912
24.69	0.05059898
24.695	0.05107016
24.7	0.05157162
24.705	0.05209102
24.71	0.05263582
24.715	0.05313739
24.72	0.05357985
24.725	0.05404222
24.73	0.05459496
24.735	0.05516157
24.74	0.05593659
24.745	0.05668067
24.75	0.05738487
24.755	0.0580675
24.76	0.05873023
24.765	0.05938795
24.77	0.06009569
24.775	0.06081149
24.78	0.06147754
24.785	0.06211339
24.79	0.06277253
24.795	0.06342218
24.8	0.06409833
24.805	0.06482284
24.81	0.06551395
24.815	0.0661551
24.82	0.06675754
24.825	0.06733153
24.83	0.06790105
24.835	0.06847484
24.84	0.06907326
24.845	0.06956382
24.85	0.0700219
24.855	0.0705168
24.86	0.07101061
24.865	0.07147767
24.87	0.07195589
24.875	0.07243946
24.88	0.07305741
24.885	0.07339634
24.89	0.07384308
24.895	0.0740679
24.9	0.07429107
24.905	0.07450412
24.91	0.07477317
24.915	0.07500353
24.92	0.07525207
24.925	0.0754799
24.93	0.07568417
24.935	0.07572584
24.94	0.07578183
24.945	0.07559195
24.95	0.07544801
24.955	0.0754795
24.96	0.07554642
24.965	0.07561995
24.97	0.07570255
24.975	0.07570841
24.98	0.07571519
24.985	0.0757647
24.99	0.07587021
24.995	0.0759304
25	0.07602008
25.005	0.07606691
25.01	0.07611164
25.015	0.07620126
25.02	0.07631079
25.025	0.07644073
25.03	0.07658217
25.035	0.07670956
25.04	0.07682129
25.045	0.07692155
25.05	0.07706993
25.055	0.07723607
25.06	0.0774107
25.065	0.0775865
25.07	0.07783456
25.075	0.07809477
25.08	0.07833903
25.085	0.07847628
25.09	0.07875398
25.095	0.07895107
25.1	0.07925664
25.105	0.07956382
25.11	0.07984461
25.115	0.07998803
25.12	0.08013376
25.125	0.08034073
25.13	0.08053928
25.135	0.08075106
25.14	0.0810543
25.145	0.08131799
25.15	0.0815965
25.155	0.08185731
25.16	0.08186397
25.165	0.08202501
25.17	0.08230533
25.175	0.08259779
25.18	0.08292752
25.185	0.08325412
25.19	0.08355763
25.195	0.08378864
25.2	0.08403999
25.205	0.08424626
25.21	0.08449419
25.215	0.0847149
25.22	0.08491742
25.225	0.08509959
25.23	0.08543277
25.235	0.08575832
25.24	0.08607909
25.245	0.08641407
25.25	0.08673294
25.255	0.0870482
25.26	0.08735486
25.265	0.08765611
25.27	0.08796233
25.275	0.08815736
25.28	0.08834928
25.285	0.08854837
25.29	0.08866722
25.295	0.08881908
25.3	0.0888716
25.305	0.08895039
25.31	0.08902476
25.315	0.08911279
25.32	0.08932017
25.325	0.08954151
25.33	0.08966312
25.335	0.08980646
25.34	0.08991331
25.345	0.09000798
25.35	0.0901138
25.355	0.09029068
25.36	0.09038715
25.365	0.09049947
25.37	0.09030725
25.375	0.08990697
25.38	0.08949135
25.385	0.08905376
25.39	0.08863545
25.395	0.08821588
25.4	0.08781425
25.405	0.08743925
25.41	0.08707734
25.415	0.08671627
25.42	0.08636814
25.425	0.08601056
25.43	0.08566787
25.435	0.08506369
25.44	0.08450116
25.445	0.08395187
25.45	0.08340379
25.455	0.08284192
25.46	0.0822767
25.465	0.08171068
25.47	0.08113206
25.475	0.08053777
25.48	0.08000211
25.485	0.07945519
25.49	0.0789041
25.495	0.07836909
25.5	0.07780138
25.505	0.0773704
25.51	0.07686146
25.515	0.07643255
25.52	0.07606705
25.525	0.07558289
25.53	0.07510412
25.535	0.07465447
25.54	0.07424157
25.545	0.07387452
25.55	0.07351187
25.555	0.07318175
25.56	0.07288036
25.565	0.07265195
25.57	0.07250576
25.575	0.07246626
25.58	0.07254752
25.585	0.07260268
25.59	0.07274965
25.595	0.07287151
25.6	0.07318259
25.605	0.07356829
25.61	0.07392254
25.615	0.07427843
25.62	0.07455155
25.625	0.07486918
25.63	0.07524222
25.635	0.07561228
25.64	0.07602635
25.645	0.07634571
25.65	0.07669474
25.655	0.07705142
25.66	0.07744269
25.665	0.07784407
25.67	0.07827124
25.675	0.07871909
25.68	0.07917167
25.685	0.07966065
25.69	0.08020371
25.695	0.08085646
25.7	0.08155522
25.705	0.0821979
25.71	0.08272965
25.715	0.08332
25.72	0.08375906
25.725	0.08406108
25.73	0.08440389
25.735	0.08472273
25.74	0.08505259
25.745	0.08531493
25.75	0.0855478
25.755	0.08576903
25.76	0.08594603
25.765	0.08609945
25.77	0.08624856
25.775	0.08639956
25.78	0.08661857
25.785	0.08683992
25.79	0.08707396
25.795	0.08717499
25.8	0.08726084
25.805	0.08704283
25.81	0.08671514
25.815	0.08634993
25.82	0.08604419
25.825	0.08584413
25.83	0.08557123
25.835	0.08525496
25.84	0.08494413
25.845	0.08474003
25.85	0.08457454
25.855	0.08432929
25.86	0.08402652
25.865	0.0836913
25.87	0.08334481
25.875	0.08297704
25.88	0.08260798
25.885	0.0822391
25.89	0.08178702
25.895	0.08123964
25.9	0.08046208
25.905	0.07973018
25.91	0.07904111
25.915	0.07838781
25.92	0.07764911
25.925	0.07699787
25.93	0.07642543
25.935	0.0758374
25.94	0.07526959
25.945	0.07475091
25.95	0.07428502
25.955	0.07384527
25.96	0.07340915
25.965	0.07301859
25.97	0.07278199
25.975	0.07254831
25.98	0.07236922
25.985	0.0721778
25.99	0.0719707
25.995	0.07175901
26	0.07163068
26.005	0.07153179
26.01	0.07161598
26.015	0.07178727
26.02	0.07201286
26.025	0.07209746
26.03	0.07206904
26.035	0.07212805
26.04	0.07215703
26.045	0.07219533
26.05	0.0721668
26.055	0.07233808
26.06	0.07259174
26.065	0.07303565
26.07	0.07349475
26.075	0.0739495
26.08	0.07436029
26.085	0.07491169
26.09	0.07545395
26.095	0.07608025
26.1	0.0767442
26.105	0.07752186
26.11	0.07820197
26.115	0.07886488
26.12	0.07954707
26.125	0.0803269
26.13	0.08107214
26.135	0.08181065
26.14	0.08270132
26.145	0.08357917
26.15	0.08444732
26.155	0.08530148
26.16	0.08612757
26.165	0.08700435
26.17	0.08783571
26.175	0.08832433
26.18	0.08881172
26.185	0.08921377
26.19	0.08960085
26.195	0.08998526
26.2	0.09036998
26.205	0.09077815
26.21	0.09121712
26.215	0.09168133
26.22	0.09212291
26.225	0.09253633
26.23	0.09300522
26.235	0.09348086
26.24	0.0938946
26.245	0.09429984
26.25	0.09468693
26.255	0.09505609
26.26	0.09513307
26.265	0.09523614
26.27	0.09510466
26.275	0.09500494
26.28	0.09489552
26.285	0.09481344
26.29	0.09445334
26.295	0.0940947
26.3	0.09366532
26.305	0.09324512
26.31	0.09285581
26.315	0.0924933
26.32	0.09216087
26.325	0.09182397
26.33	0.09139232
26.335	0.09102144
26.34	0.0906584
26.345	0.09009162
26.35	0.08949134
26.355	0.08876562
26.36	0.08799319
26.365	0.08728164
26.37	0.08646494
26.375	0.08574988
26.38	0.08522707
26.385	0.0847389
26.39	0.08432438
26.395	0.08396809
26.4	0.08366079
26.405	0.08337567
26.41	0.08305618
26.415	0.0826454
26.42	0.08224085
26.425	0.08185968
26.43	0.08156662
26.435	0.0812602
26.44	0.08101294
26.445	0.08078627
26.45	0.08059008
26.455	0.08038241
26.46	0.08022002
26.465	0.08024388
26.47	0.08015629
26.475	0.08021195
26.48	0.08023052
26.485	0.0803238
26.49	0.08041708
26.495	0.08068606
26.5	0.08096523
26.505	0.08128824
26.51	0.08167186
26.515	0.08199841
26.52	0.08231881
26.525	0.08257905
26.53	0.08285062
26.535	0.08317036
26.54	0.08339377
26.545	0.08377005
26.55	0.08417875
26.555	0.08461081
26.56	0.08516797
26.565	0.08578479
26.57	0.08627922
26.575	0.08680308
26.58	0.087142
26.585	0.08750545
26.59	0.08780592
26.595	0.08806594
26.6	0.08823155
26.605	0.08850457
26.61	0.08874009
26.615	0.08899885
26.62	0.08932199
26.625	0.08956391
26.63	0.08977338
26.635	0.08987087
26.64	0.08997839
26.645	0.09003396
26.65	0.09009112
26.655	0.09016531
26.66	0.09024705
26.665	0.090311
26.67	0.09034276
26.675	0.09038521
26.68	0.09042796
26.685	0.09043655
26.69	0.09034095
26.695	0.09028701
26.7	0.09023508
26.705	0.09016193
26.71	0.09009526
26.715	0.08990191
26.72	0.08971973
26.725	0.08954625
26.73	0.08940178
26.735	0.08925787
26.74	0.08911044
26.745	0.08901898
26.75	0.08860609
26.755	0.08827815
26.76	0.08796708
26.765	0.08768332
26.77	0.08746218
26.775	0.08733836
26.78	0.08725572
26.785	0.08728095
26.79	0.08729424
26.795	0.08734
26.8	0.08740942
26.805	0.08752209
26.81	0.08729994
26.815	0.08710026
26.82	0.08689571
26.825	0.08662837
26.83	0.08643377
26.835	0.08623416
26.84	0.08606619
26.845	0.08589166
26.85	0.08572597
26.855	0.08556748
26.86	0.08538483
26.865	0.08522983
26.87	0.08506744
26.875	0.08490755
26.88	0.08478275
26.885	0.08466448
26.89	0.08458173
26.895	0.08456616
26.9	0.08447144
26.905	0.08440331
26.91	0.08437152
26.915	0.08432409
26.92	0.0843256
26.925	0.08431082
26.93	0.08430221
26.935	0.0842961
26.94	0.08425694
26.945	0.08423064
26.95	0.08417601
26.955	0.08428968
26.96	0.08434173
26.965	0.08435168
26.97	0.08422534
26.975	0.08386975
26.98	0.08343226
26.985	0.08294835
26.99	0.08243609
26.995	0.08185488
27	0.08123734
27.005	0.08054534
27.01	0.07985138
27.015	0.07936115
27.02	0.0788532
27.025	0.07826195
27.03	0.07771346
27.035	0.07708977
27.04	0.07655138
27.045	0.07601397
27.05	0.07568455
27.055	0.07537236
27.06	0.07507835
27.065	0.07476375
27.07	0.0744101
27.075	0.07407433
27.08	0.07379666
27.085	0.0735407
27.09	0.0734611
27.095	0.07344436
27.1	0.07348321
27.105	0.07354957
27.11	0.07355487
27.115	0.07350373
27.12	0.07344672
27.125	0.0734085
27.13	0.07339391
27.135	0.07336341
27.14	0.07332053
27.145	0.07330535
27.15	0.07345951
27.155	0.07361602
27.16	0.07389468
27.165	0.07416429
27.17	0.07447539
27.175	0.07478878
27.18	0.07523745
27.185	0.07572432
27.19	0.07619646
27.195	0.0766689
27.2	0.07722115
27.205	0.07779578
27.21	0.07841632
27.215	0.07903969
27.22	0.07965302
27.225	0.08032113
27.23	0.08106309
27.235	0.08178102
27.24	0.08254688
27.245	0.08319266
27.25	0.0838522
27.255	0.08414427
27.26	0.08442449
27.265	0.08466396
27.27	0.08492516
27.275	0.08518533
27.28	0.08543728
27.285	0.08561902
27.29	0.08584152
27.295	0.0857339
27.3	0.08563637
27.305	0.08551736
27.31	0.08540886
27.315	0.085425
27.32	0.08544903
27.325	0.08548115
27.33	0.08551597
27.335	0.08557401
27.34	0.0856967
27.345	0.08586486
27.35	0.08618947
27.355	0.08620707
27.36	0.08626747
27.365	0.08612477
27.37	0.08601587
27.375	0.08596016
27.38	0.08607661
27.385	0.08620571
27.39	0.08644732
27.395	0.08678067
27.4	0.08712401
27.405	0.08744089
27.41	0.08775482
27.415	0.0880701
27.42	0.08838155
27.425	0.08870554
27.43	0.0889563
27.435	0.08916672
27.44	0.08939213
27.445	0.08963808
27.45	0.08991243
27.455	0.09030851
27.46	0.09085407
27.465	0.09140662
27.47	0.09197235
27.475	0.09257915
27.48	0.09319121
27.485	0.09379929
27.49	0.09444685
27.495	0.09501218
27.5	0.09572709
27.505	0.09628268
27.51	0.09673529
27.515	0.09723633
27.52	0.09760385
27.525	0.09800321
27.53	0.09844256
27.535	0.09888247
27.54	0.09928086
27.545	0.09957772
27.55	0.09981151
27.555	0.0997677
27.56	0.09985843
27.565	0.09987619
27.57	0.1000011
27.575	0.1000576
27.58	0.1000791
27.585	0.09991803
27.59	0.09980468
27.595	0.09950272
27.6	0.0991389
27.605	0.09878849
27.61	0.09846382
27.615	0.09816219
27.62	0.09789028
27.625	0.09760531
27.63	0.09730128
27.635	0.09700554
27.64	0.09674215
27.645	0.09647151
27.65	0.0961413
27.655	0.09590256
27.66	0.09545945
27.665	0.09502753
27.67	0.0946038
27.675	0.09421077
27.68	0.09374745
27.685	0.09328633
27.69	0.09282681
27.695	0.09233003
27.7	0.09186929
27.705	0.09151304
27.71	0.09125312
27.715	0.09102876
27.72	0.090799
27.725	0.09057296
27.73	0.09030749
27.735	0.08994836
27.74	0.08957541
27.745	0.08923498
27.75	0.08899248
27.755	0.08878775
27.76	0.0887643
27.765	0.08876324
27.77	0.08892958
27.775	0.08908942
27.78	0.08944207
27.785	0.08968671
27.79	0.09002761
27.795	0.09024189
27.8	0.09056353
27.805	0.09084813
27.81	0.09113662
27.815	0.09142875
27.82	0.09166879
27.825	0.09183634
27.83	0.09202075
27.835	0.09224707
27.84	0.0924947
27.845	0.09273771
27.85	0.09298453
27.855	0.09328077
27.86	0.0934208
27.865	0.09359922
27.87	0.09377302
27.875	0.09393296
27.88	0.09405176
27.885	0.09420198
27.89	0.0943445
27.895	0.09452421
27.9	0.0947273
27.905	0.09489882
27.91	0.09486394
27.915	0.09492221
27.92	0.09501181
27.925	0.09499217
27.93	0.09502075
27.935	0.09507032
27.94	0.09517941
27.945	0.09529807
27.95	0.09539818
27.955	0.09542836
27.96	0.09545717
27.965	0.09548992
27.97	0.09546406
27.975	0.09527981
27.98	0.095051
27.985	0.09466284
27.99	0.09432483
27.995	0.09399359
28	0.09372349
28.005	0.09343714
28.01	0.0931934
28.015	0.0928732
28.02	0.09244921
28.025	0.0920922
28.03	0.0917752
28.035	0.09144148
28.04	0.09104818
28.045	0.09064591
28.05	0.09021442
28.055	0.08977985
28.06	0.08927844
28.065	0.08885106
28.07	0.08846747
28.075	0.08811041
28.08	0.0877375
28.085	0.08735497
28.09	0.08695835
28.095	0.08656487
28.1	0.0860928
28.105	0.08560876
28.11	0.08515814
28.115	0.08482762
28.12	0.08439516
28.125	0.08394221
28.13	0.08352105
28.135	0.08308146
28.14	0.08264074
28.145	0.08217008
28.15	0.08169065
28.155	0.08123019
28.16	0.08079381
28.165	0.08032604
28.17	0.07976582
28.175	0.07924301
28.18	0.07867741
28.185	0.07814448
28.19	0.07754374
28.195	0.07697059
28.2	0.07638206
28.205	0.07580162
28.21	0.07524237
28.215	0.07464763
28.22	0.07410439
28.225	0.0737332
28.23	0.07324989
28.235	0.07277985
28.24	0.07234113
28.245	0.07191119
28.25	0.07148036
28.255	0.07106747
28.26	0.07065393
28.265	0.07034925
28.27	0.07005606
28.275	0.06982878
28.28	0.0695479
28.285	0.06929273
28.29	0.06909048
28.295	0.06889433
28.3	0.06872282
28.305	0.06864607
28.31	0.06857456
28.315	0.06841799
28.32	0.06824321
28.325	0.06795221
28.33	0.06767262
28.335	0.06742084
28.34	0.0671948
28.345	0.0669294
28.35	0.06667726
28.355	0.06642937
28.36	0.06616829
28.365	0.06591265
28.37	0.06568417
28.375	0.06552824
28.38	0.06542506
28.385	0.06557952
28.39	0.06574868
28.395	0.06610987
28.4	0.06649204
28.405	0.0668367
28.41	0.06717255
28.415	0.06754912
28.42	0.06796381
28.425	0.06842311
28.43	0.06870704
28.435	0.069079
28.44	0.06941356
28.445	0.06969664
28.45	0.06999794
28.455	0.07029671
28.46	0.07059434
28.465	0.07089072
28.47	0.07107017
28.475	0.07128323
28.48	0.07135233
28.485	0.07145041
28.49	0.07152349
28.495	0.071544
28.5	0.07154296
28.505	0.07149566
28.51	0.07133705
28.515	0.07131793
28.52	0.07135684
28.525	0.07151771
28.53	0.07177996
28.535	0.07209962
28.54	0.07243307
28.545	0.07274022
28.55	0.07308704
28.555	0.07344736
28.56	0.0738079
28.565	0.07424229
28.57	0.07473873
28.575	0.07525775
28.58	0.0758414
28.585	0.07634384
28.59	0.076639
28.595	0.07691079
28.6	0.07706286
28.605	0.0771777
28.61	0.07731339
28.615	0.07743304
28.62	0.07744263
28.625	0.07739216
28.63	0.07727946
28.635	0.07731274
28.64	0.07729934
28.645	0.07733866
28.65	0.07742194
28.655	0.07750862
28.66	0.07761735
28.665	0.07773536
28.67	0.0778402
28.675	0.07810276
28.68	0.07829014
28.685	0.07856573
28.69	0.0788571
28.695	0.07918405
28.7	0.07952577
28.705	0.07995689
28.71	0.08039968
28.715	0.08090352
28.72	0.08116259
28.725	0.08142659
28.73	0.08155761
28.735	0.08172892
28.74	0.08183761
28.745	0.08194515
28.75	0.08215344
28.755	0.08235806
28.76	0.08259276
28.765	0.08288824
28.77	0.08301249
28.775	0.08302703
28.78	0.08301722
28.785	0.0828992
28.79	0.08279677
28.795	0.08292076
28.8	0.0830576
28.805	0.08327187
28.81	0.08348629
28.815	0.08370901
28.82	0.08398911
28.825	0.08435891
28.83	0.08480452
28.835	0.08529957
28.84	0.08563854
28.845	0.08599598
28.85	0.08631061
28.855	0.08658856
28.86	0.08685906
28.865	0.08725136
28.87	0.0876335
28.875	0.08809425
28.88	0.08837845
28.885	0.08869406
28.89	0.08898709
28.895	0.08922176
28.9	0.08941516
28.905	0.08960893
28.91	0.08968008
28.915	0.08983097
28.92	0.08997455
28.925	0.0902271
28.93	0.09049631
28.935	0.09075596
28.94	0.09095846
28.945	0.09114596
28.95	0.09134519
28.955	0.09138995
28.96	0.09140737
28.965	0.0914242
28.97	0.09131977
28.975	0.09134757
28.98	0.09142535
28.985	0.09148313
28.99	0.09157063
28.995	0.09167183
29	0.09151598
29.005	0.09135587
29.01	0.0911904
29.015	0.09104254
29.02	0.09089232
29.025	0.09067777
29.03	0.09038928
29.035	0.09003848
29.04	0.08963039
29.045	0.08934224
29.05	0.08905114
29.055	0.08872506
29.06	0.08845046
29.065	0.08822284
29.07	0.08771211
29.075	0.08722142
29.08	0.08661763
29.085	0.08608063
29.09	0.08552712
29.095	0.0849786
29.1	0.08446314
29.105	0.0839663
29.11	0.08347088
29.115	0.08305084
29.12	0.08248952
29.125	0.08191222
29.13	0.08133217
29.135	0.08079142
29.14	0.08027171
29.145	0.07980929
29.15	0.07938559
29.155	0.07893641
29.16	0.07855362
29.165	0.07819492
29.17	0.07767422
29.175	0.0772355
29.18	0.0767399
29.185	0.07625695
29.19	0.07586939
29.195	0.0754802
29.2	0.07508569
29.205	0.07479742
29.21	0.07455829
29.215	0.07427436
29.22	0.07397807
29.225	0.07368361
29.23	0.07339359
29.235	0.07323067
29.24	0.07308725
29.245	0.07299229
29.25	0.0729606
29.255	0.07292772
29.26	0.07322301
29.265	0.07342955
29.27	0.07356502
29.275	0.07392755
29.28	0.0742371
29.285	0.0745755
29.29	0.07492907
29.295	0.07530594
29.3	0.07575399
29.305	0.07621881
29.31	0.07670547
29.315	0.07718855
29.32	0.07770173
29.325	0.07832414
29.33	0.07895363
29.335	0.07961556
29.34	0.08011326
29.345	0.08062539
29.35	0.08115014
29.355	0.08166338
29.36	0.08217835
29.365	0.08270765
29.37	0.08322543
29.375	0.08384559
29.38	0.08446742
29.385	0.08505359
29.39	0.08561139
29.395	0.08605405
29.4	0.08658812
29.405	0.08712045
29.41	0.08779164
29.415	0.0884432
29.42	0.0890982
29.425	0.08982748
29.43	0.0905515
29.435	0.09127565
29.44	0.09188268
29.445	0.09249113
29.45	0.09308827
29.455	0.09358395
29.46	0.0943197
29.465	0.0947634
29.47	0.09528016
29.475	0.09578251
29.48	0.09618115
29.485	0.09659743
29.49	0.09701523
29.495	0.09743006
29.5	0.09783647
29.505	0.09811548
29.51	0.09836097
29.515	0.09858119
29.52	0.09885205
29.525	0.09903441
29.53	0.09911845
29.535	0.09921446
29.54	0.0992411
29.545	0.09937235
29.55	0.09952619
29.555	0.09958689
29.56	0.09969315
29.565	0.09982054
29.57	0.0999408
29.575	0.1000642
29.58	0.1002046
29.585	0.1003112
29.59	0.1004395
29.595	0.1006709
29.6	0.1009459
29.605	0.1011369
29.61	0.1013477
29.615	0.1015847
29.62	0.1017428
29.625	0.1021285
29.63	0.1023813
29.635	0.1026247
29.64	0.1028979
29.645	0.1032465
29.65	0.1035968
29.655	0.1039441
29.66	0.1041904
29.665	0.1040191
29.67	0.1038554
29.675	0.103614
29.68	0.1035044
29.685	0.1034461
29.69	0.1034938
29.695	0.1035986
29.7	0.1037128
29.705	0.1038467
29.71	0.1040515
29.715	0.1042732
29.72	0.1044877
29.725	0.1046056
29.73	0.1047959
29.735	0.1050664
29.74	0.1053128
29.745	0.1055918
29.75	0.10584
29.755	0.1060503
29.76	0.1063282
29.765	0.1065567
29.77	0.1067709
29.775	0.1070606
29.78	0.1073972
29.785	0.1077606
29.79	0.1081539
29.795	0.1086075
29.8	0.1090229
29.805	0.1094204
29.81	0.1097839
29.815	0.1101142
29.82	0.1101261
29.825	0.1101837
29.83	0.1099788
29.835	0.1098336
29.84	0.1097255
29.845	0.1095741
29.85	0.1093597
29.855	0.1091578
29.86	0.108946
29.865	0.1088436
29.87	0.1089065
29.875	0.1089505
29.88	0.1090282
29.885	0.1088952
29.89	0.1088288
29.895	0.1086054
29.9	0.1082762
29.905	0.1079504
29.91	0.1075693
29.915	0.1071755
29.92	0.1068321
29.925	0.1065005
29.93	0.1062849
29.935	0.1060444
29.94	0.1057713
29.945	0.1055086
29.95	0.1052743
29.955	0.1050211
29.96	0.104779
29.965	0.1045033
29.97	0.104193
29.975	0.1039121
29.98	0.1034812
29.985	0.1030124
29.99	0.1024455
29.995	0.1018483
30	0.1011445
30.005	0.1002277
30.01	0.09939721
30.015	0.09862006
30.02	0.09792631
30.025	0.09747885
30.03	0.09703767
30.035	0.09652713
30.04	0.09608018
30.045	0.09558736
30.05	0.09514543
30.055	0.09481043
30.06	0.09451108
30.065	0.09426224
30.07	0.09400786
30.075	0.09379358
30.08	0.093676
30.085	0.09356063
30.09	0.09365374
30.095	0.09360458
30.1	0.09364571
30.105	0.09375151
30.11	0.09394369
30.115	0.09418647
30.12	0.09444422
30.125	0.09464654
30.13	0.09485464
30.135	0.09490772
30.14	0.09492697
30.145	0.09496048
30.15	0.09500267
30.155	0.0949842
30.16	0.09498511
30.165	0.09500881
30.17	0.09509447
30.175	0.09523928
30.18	0.09528996
30.185	0.09545851
30.19	0.09554591
30.195	0.09568915
30.2	0.09586976
30.205	0.09608921
30.21	0.09653891
30.215	0.09682205
30.22	0.09716347
30.225	0.09734825
30.23	0.09748921
30.235	0.09766653
30.24	0.09801057
30.245	0.09823648
30.25	0.09846482
30.255	0.09864483
30.26	0.09868795
30.265	0.0986201
30.27	0.09847589
30.275	0.09834421
30.28	0.09819152
30.285	0.09811646
30.29	0.09813059
30.295	0.09801515
30.3	0.09795693
30.305	0.09780595
30.31	0.09765243
30.315	0.09727276
30.32	0.0968752
30.325	0.09654554
30.33	0.09614937
30.335	0.09574318
30.34	0.09542477
30.345	0.0951431
30.35	0.09481856
30.355	0.09448682
30.36	0.09418438
30.365	0.09392571
30.37	0.09365868
30.375	0.09330182
30.38	0.09291522
30.385	0.09258543
30.39	0.09218073
30.395	0.09189043
30.4	0.09164106
30.405	0.09134439
30.41	0.09108635
30.415	0.09067754
30.42	0.09034638
30.425	0.08987169
30.43	0.08950021
30.435	0.08920902
30.44	0.08882966
30.445	0.08836499
30.45	0.08806338
30.455	0.08774087
30.46	0.08746599
30.465	0.08729615
30.47	0.0872099
30.475	0.08716012
30.48	0.08708601
30.485	0.08702201
30.49	0.08678949
30.495	0.08635794
30.5	0.08594465
30.505	0.08553959
30.51	0.08524307
30.515	0.0849503
30.52	0.08480445
30.525	0.08465134
30.53	0.08429403
30.535	0.08402616
30.54	0.08377482
30.545	0.08349134
30.55	0.08324809
30.555	0.08312589
30.56	0.0829871
30.565	0.08284933
30.57	0.08263888
30.575	0.08241837
30.58	0.08230903
30.585	0.08231787
30.59	0.08232856
30.595	0.08241018
30.6	0.08238942
30.605	0.08225581
30.61	0.08214234
30.615	0.08195634
30.62	0.08184609
30.625	0.0817686
30.63	0.08172204
30.635	0.08163723
30.64	0.08164901
30.645	0.08171753
30.65	0.08194282
30.655	0.08194593
30.66	0.08201443
30.665	0.08214579
30.67	0.08221366
30.675	0.08226036
30.68	0.08231532
30.685	0.0823621
30.69	0.08243634
30.695	0.08253032
30.7	0.0827385
30.705	0.08306833
30.71	0.08339331
30.715	0.08367834
30.72	0.08396141
30.725	0.08426693
30.73	0.08468716
30.735	0.08528728
30.74	0.08585085
30.745	0.08637637
30.75	0.08692314
30.755	0.08737702
30.76	0.08766485
30.765	0.08812533
30.77	0.08859483
30.775	0.08918689
30.78	0.0897543
30.785	0.09020982
30.79	0.09048312
30.795	0.09075196
30.8	0.09102889
30.805	0.091462
30.81	0.0919836
30.815	0.09250498
30.82	0.09306863
30.825	0.09365253
30.83	0.09423776
30.835	0.09485481
30.84	0.09548423
30.845	0.09580041
30.85	0.09617243
30.855	0.09639285
30.86	0.09668679
30.865	0.09694709
30.87	0.09707114
30.875	0.09721076
30.88	0.09737224
30.885	0.09763982
30.89	0.09793846
30.895	0.09825509
30.9	0.09861341
30.905	0.09895264
30.91	0.09914982
30.915	0.09934793
30.92	0.09954667
30.925	0.09974642
30.93	0.09991333
30.935	0.09990297
30.94	0.09977111
30.945	0.09966949
30.95	0.09960277
30.955	0.09952349
30.96	0.09947794
30.965	0.09950664
30.97	0.09928252
30.975	0.09905449
30.98	0.09863102
30.985	0.0982175
30.99	0.09786505
30.995	0.09760178
31	0.0973603
31.005	0.09701984
31.01	0.09649457
31.015	0.0959232
31.02	0.09537714
31.025	0.09479502
31.03	0.0941731
31.035	0.09347664
31.04	0.09283389
31.045	0.09218497
31.05	0.09174223
31.055	0.09116353
31.06	0.09061978
31.065	0.09011856
31.07	0.08957949
31.075	0.08905575
31.08	0.08855291
31.085	0.08801129
31.09	0.08722053
31.095	0.08643255
31.1	0.08553577
31.105	0.08462572
31.11	0.0837223
31.115	0.08300407
31.12	0.08227743
31.125	0.08154724
31.13	0.08084714
31.135	0.0803009
31.14	0.07986384
31.145	0.07950469
31.15	0.07909155
31.155	0.078681
31.16	0.07828349
31.165	0.07804632
31.17	0.07783292
31.175	0.07782726
31.18	0.07780054
31.185	0.07791757
31.19	0.07805705
31.195	0.07817246
31.2	0.07825512
31.205	0.07829948
31.21	0.078422
31.215	0.07861381
31.22	0.07878819
31.225	0.07891461
31.23	0.07906293
31.235	0.07923437
31.24	0.07945813
31.245	0.07954543
31.25	0.07963445
31.255	0.0796533
31.26	0.07974173
31.265	0.07988947
31.27	0.07996436
31.275	0.08008427
31.28	0.08034978
31.285	0.08061232
31.29	0.08088743
31.295	0.08129624
31.3	0.08162236
31.305	0.08198467
31.31	0.08234973
31.315	0.08271595
31.32	0.08293851
31.325	0.08315783
31.33	0.08338691
31.335	0.08354498
31.34	0.08349007
31.345	0.08343311
31.35	0.0834481
31.355	0.08349422
31.36	0.08350462
31.365	0.08349577
31.37	0.08319765
31.375	0.08285343
31.38	0.08236892
31.385	0.08187925
31.39	0.08136458
31.395	0.08081263
31.4	0.08031275
31.405	0.07983953
31.41	0.07936444
31.415	0.07890117
31.42	0.07846749
31.425	0.07806662
31.43	0.07766922
31.435	0.07727184
31.44	0.07686723
31.445	0.07645517
31.45	0.07611232
31.455	0.07578525
31.46	0.07551108
31.465	0.07524077
31.47	0.07492157
31.475	0.07465217
31.48	0.07437039
31.485	0.07389273
31.49	0.07337773
31.495	0.07286543
31.5	0.07234933
31.505	0.07187724
31.51	0.07143354
31.515	0.07101319
31.52	0.07060671
31.525	0.0701388
31.53	0.0698603
31.535	0.06956224
31.54	0.06936865
31.545	0.06916341
31.55	0.06895857
31.555	0.06874923
31.56	0.06856291
31.565	0.06837725
31.57	0.06820005
31.575	0.06820144
31.58	0.06823154
31.585	0.06848651
31.59	0.06876043
31.595	0.06919814
31.6	0.06965911
31.605	0.07000243
31.61	0.07035864
31.615	0.07072795
31.62	0.07108852
31.625	0.07142138
31.63	0.07174643
31.635	0.07206589
31.64	0.07238535
31.645	0.0727513
31.65	0.0731396
31.655	0.07373689
31.66	0.07436961
31.665	0.07498802
31.67	0.07561392
31.675	0.07624749
31.68	0.07686342
31.685	0.07748156
31.69	0.07822509
31.695	0.07897746
31.7	0.07972868
31.705	0.08049265
31.71	0.0812628
31.715	0.08202133
31.72	0.08276694
31.725	0.08347442
31.73	0.08425256
31.735	0.08471766
31.74	0.08518324
31.745	0.08555903
31.75	0.08601253
31.755	0.08649519
31.76	0.08679098
31.765	0.08702485
31.77	0.08723249
31.775	0.08744372
31.78	0.0877
31.785	0.08795293
31.79	0.08799956
31.795	0.08805351
31.8	0.08786762
31.805	0.08768811
31.81	0.08758726
31.815	0.08744755
31.82	0.08731197
31.825	0.08714992
31.83	0.08700522
31.835	0.08693922
31.84	0.08690714
31.845	0.08689697
31.85	0.08681208
31.855	0.08670948
31.86	0.08630926
31.865	0.0858636
31.87	0.08541885
31.875	0.08499401
31.88	0.08465243
31.885	0.08432176
31.89	0.08408316
31.895	0.08375746
31.9	0.08344035
31.905	0.08312393
31.91	0.08276843
31.915	0.08240759
31.92	0.08202674
31.925	0.08162295
31.93	0.08124106
31.935	0.080928
31.94	0.08077166
31.945	0.08069041
31.95	0.08063621
31.955	0.0806848
31.96	0.08065963
31.965	0.08073961
31.97	0.08086261
31.975	0.08102429
31.98	0.08122517
31.985	0.08138947
31.99	0.08158381
31.995	0.08188889
32	0.08217314
32.005	0.08258835
32.01	0.08297877
32.015	0.08331957
32.02	0.08366926
32.025	0.08402798
32.03	0.08440511
32.035	0.08477875
32.04	0.08498861
32.045	0.08518826
32.05	0.08534607
32.055	0.0855443
32.06	0.08575866
32.065	0.08602704
32.07	0.0862145
32.075	0.086386
32.08	0.08650061
32.085	0.08645338
32.09	0.08639666
32.095	0.0862005
32.1	0.0860739
32.105	0.08593332
32.11	0.08577175
32.115	0.08565983
32.12	0.08558376
32.125	0.08554873
32.13	0.08554581
32.135	0.0855242
32.14	0.08538158
32.145	0.08523343
32.15	0.08496087
32.155	0.08476566
32.16	0.08438632
32.165	0.08407238
32.17	0.08376012
32.175	0.0834583
32.18	0.08316545
32.185	0.08284853
32.19	0.08244828
32.195	0.08198999
32.2	0.08149789
32.205	0.0810042
32.21	0.0805969
32.215	0.08020071
32.22	0.07979388
32.225	0.07939459
32.23	0.07896055
32.235	0.07852574
32.24	0.07808606
32.245	0.07774137
32.25	0.07737611
32.255	0.0771113
32.26	0.07683678
32.265	0.07669345
32.27	0.07661808
32.275	0.07667545
32.28	0.07674676
32.285	0.07682918
32.29	0.07700503
32.295	0.07719175
32.3	0.07737544
32.305	0.07750779
32.31	0.07767827
32.315	0.07791732
32.32	0.07810371
32.325	0.07823206
32.33	0.07831134
32.335	0.07830685
32.34	0.07827581
32.345	0.07830658
32.35	0.07834558
32.355	0.0784709
32.36	0.07844004
32.365	0.07848871
32.37	0.07847804
32.375	0.07849806
32.38	0.07848262
32.385	0.0784412
32.39	0.07833107
32.395	0.07830133
32.4	0.07829929
32.405	0.07840179
32.41	0.07855586
32.415	0.07855104
32.42	0.07862087
32.425	0.07880432
32.43	0.07898558
32.435	0.07924711
32.44	0.07950752
32.445	0.07976941
32.45	0.08001666
32.455	0.08023246
32.46	0.08029852
32.465	0.08047078
32.47	0.0804339
32.475	0.08043127
32.48	0.08033345
32.485	0.08022811
32.49	0.0801459
32.495	0.08009353
32.5	0.08001817
32.505	0.08004014
32.51	0.08009139
32.515	0.08008709
32.52	0.07999969
32.525	0.07991461
32.53	0.079809
32.535	0.07971258
32.54	0.07964835
32.545	0.07960368
32.55	0.07960862
32.555	0.07964502
32.56	0.07963488
32.565	0.07975749
32.57	0.07991397
32.575	0.08010955
32.58	0.08043365
32.585	0.08080235
32.59	0.08122459
32.595	0.08169823
32.6	0.08215023
32.605	0.08261077
32.61	0.0829887
32.615	0.08328943
32.62	0.08363438
32.625	0.08384427
32.63	0.08390438
32.635	0.08396358
32.64	0.08396901
32.645	0.08398637
32.65	0.08401223
32.655	0.08404577
32.66	0.0841177
32.665	0.08427096
32.67	0.08422675
32.675	0.08432686
32.68	0.0843677
32.685	0.08463508
32.69	0.08490498
32.695	0.08515876
32.7	0.08536231
32.705	0.08562955
32.71	0.08582231
32.715	0.08600332
32.72	0.08621163
32.725	0.08643201
32.73	0.08670528
32.735	0.087049
32.74	0.08740055
32.745	0.08778561
32.75	0.08818518
32.755	0.08853343
32.76	0.08882105
32.765	0.08912093
32.77	0.08936238
32.775	0.08956798
32.78	0.08977599
32.785	0.08973373
32.79	0.08964362
32.795	0.08947162
32.8	0.0893691
32.805	0.08927816
32.81	0.08920158
32.815	0.08907837
32.82	0.08897659
32.825	0.088869
32.83	0.08889458
32.835	0.08896182
32.84	0.08907254
32.845	0.08912028
32.85	0.08915344
32.855	0.08924397
32.86	0.08942633
32.865	0.08961863
32.87	0.09013836
32.875	0.09077135
32.88	0.09123302
32.885	0.09173735
32.89	0.09190429
32.895	0.09208317
32.9	0.09227109
32.905	0.09247366
32.91	0.09258535
32.915	0.09271761
32.92	0.09285528
32.925	0.09299962
32.93	0.09315715
32.935	0.09324899
32.94	0.09327992
32.945	0.09330792
32.95	0.09330233
32.955	0.09328579
32.96	0.09323814
32.965	0.09321974
32.97	0.09320997
32.975	0.09318321
32.98	0.09316795
32.985	0.09311491
32.99	0.09327511
32.995	0.09349603
33	0.09385814
33.005	0.09408422
33.01	0.09437135
33.015	0.09460432
33.02	0.09494099
33.025	0.09528574
33.03	0.09564291
33.035	0.09585985
33.04	0.09613464
33.045	0.09632682
33.05	0.09655618
33.055	0.09677528
33.06	0.0968666
33.065	0.09681824
33.07	0.09676382
33.075	0.09610454
33.08	0.09546489
33.085	0.09486517
33.09	0.09423125
33.095	0.09378289
33.1	0.09330895
33.105	0.0928633
33.11	0.09242425
33.115	0.0920367
33.12	0.09166983
33.125	0.09130325
33.13	0.09113362
33.135	0.09097901
33.14	0.09101578
33.145	0.09106565
33.15	0.09112232
33.155	0.09132413
33.16	0.0916026
33.165	0.09202955
33.17	0.09245636
33.175	0.09288423
33.18	0.09332264
33.185	0.09396301
33.19	0.09461858
33.195	0.09507887
33.2	0.09546823
33.205	0.09566059
33.21	0.09594848
33.215	0.09611008
33.22	0.09631748
33.225	0.09642333
33.23	0.09655393
33.235	0.09668605
33.24	0.09691633
33.245	0.09706637
33.25	0.09727215
33.255	0.09749168
33.26	0.09774336
33.265	0.09805995
33.27	0.09849092
33.275	0.09888814
33.28	0.09953012
33.285	0.1000576
33.29	0.1005987
33.295	0.1011512
33.3	0.1017884
33.305	0.1025065
33.31	0.1031852
33.315	0.1039244
33.32	0.10464
33.325	0.1053475
33.33	0.1060459
33.335	0.1064067
33.34	0.1067655
33.345	0.1068459
33.35	0.1069508
33.355	0.1070601
33.36	0.106977
33.365	0.1067738
33.37	0.1063655
33.375	0.1059662
33.38	0.105576
33.385	0.1052227
33.39	0.1045185
33.395	0.1038149
33.4	0.1031944
33.405	0.1026144
33.41	0.1021375
33.415	0.1015832
33.42	0.1010953
33.425	0.1006261
33.43	0.1002071
33.435	0.09973886
33.44	0.09927081
33.445	0.09874477
33.45	0.09826312
33.455	0.09775179
33.46	0.09723882
33.465	0.09667867
33.47	0.09611615
33.475	0.09540419
33.48	0.09471594
33.485	0.09404349
33.49	0.09344191
33.495	0.09286728
33.5	0.09228457
33.505	0.09143053
33.51	0.09040881
33.515	0.08935427
33.52	0.08812646
33.525	0.08689312
33.53	0.08561314
33.535	0.08432793
33.54	0.08318948
33.545	0.08198879
33.55	0.08094361
33.555	0.07988638
33.56	0.07878559
33.565	0.07775179
33.57	0.07679237
33.575	0.07597064
33.58	0.07513272
33.585	0.07424643
33.59	0.07328678
33.595	0.0725476
33.6	0.07181939
33.605	0.07112262
33.61	0.07045801
33.615	0.0697657
33.62	0.06915184
33.625	0.06862188
33.63	0.06796905
33.635	0.06733056
33.64	0.06672171
33.645	0.06612446
33.65	0.06567279
33.655	0.06521736
33.66	0.06492388
33.665	0.06465008
33.67	0.06441081
33.675	0.06417308
33.68	0.06409763
33.685	0.06401826
33.69	0.06394072
33.695	0.06385232
33.7	0.06375545
33.705	0.06364591
33.71	0.06375383
33.715	0.06395861
33.72	0.06420322
33.725	0.06459725
33.73	0.06499578
33.735	0.06542873
33.74	0.06586487
33.745	0.06632868
33.75	0.06682638
33.755	0.06757054
33.76	0.06823652
33.765	0.0690059
33.77	0.06979876
33.775	0.07056474
33.78	0.07136716
33.785	0.07211675
33.79	0.07293553
33.795	0.07376915
33.8	0.07460893
33.805	0.07542403
33.81	0.0761439
33.815	0.07671764
33.82	0.07727937
33.825	0.07782861
33.83	0.07817479
33.835	0.07859968
33.84	0.078973
33.845	0.07934078
33.85	0.07969179
33.855	0.07987205
33.86	0.08002241
33.865	0.07994958
33.87	0.07985084
33.875	0.07975117
33.88	0.07971273
33.885	0.07959267
33.89	0.0794634
33.895	0.07935358
33.9	0.07930627
33.905	0.07926633
33.91	0.07935269
33.915	0.07941892
33.92	0.07954848
33.925	0.07967992
33.93	0.07973957
33.935	0.0798032
33.94	0.07985334
33.945	0.07985873
33.95	0.07997293
33.955	0.08008862
33.96	0.07979523
33.965	0.07956864
33.97	0.07919357
33.975	0.0788481
33.98	0.07856471
33.985	0.07837356
33.99	0.07822448
33.995	0.07805608
34	0.07788243	#1 rest 2 
34.005	0.07774813
34.01	0.07758516
34.015	0.07747035
34.02	0.07743983
34.025	0.07747173
34.03	0.07754569
34.035	0.07773087
34.04	0.0778824
34.045	0.07807984
34.05	0.07827928
34.055	0.07867646
34.06	0.07922433
34.065	0.07985265
34.07	0.0806369
34.075	0.08140595
34.08	0.08222493
34.085	0.08291329
34.09	0.08364328
34.095	0.08437303
34.1	0.0850939
34.105	0.08569875
34.11	0.08629292
34.115	0.08670811
34.12	0.08721972
34.125	0.08765054
34.13	0.08813067
34.135	0.08867047
34.14	0.0892774
34.145	0.08987442
34.15	0.09052108
34.155	0.09098763
34.16	0.09145338
34.165	0.09210407
34.17	0.09270466
34.175	0.09335653
34.18	0.09402398
34.185	0.09463692
34.19	0.09499279
34.195	0.09532476
34.2	0.0955529
34.205	0.09578621
34.21	0.0959921
34.215	0.09621881
34.22	0.09644722
34.225	0.09667358
34.23	0.09679314
34.235	0.09680979
34.24	0.09684177
34.245	0.09694951
34.25	0.09705126
34.255	0.09722559
34.26	0.09706702
34.265	0.09684032
34.27	0.09654345
34.275	0.09614756
34.28	0.09577241
34.285	0.0952986
34.29	0.09489086
34.295	0.09447762
34.3	0.09407091
34.305	0.09368464
34.31	0.09340921
34.315	0.09316659
34.32	0.09299906
34.325	0.09267349
34.33	0.09235539
34.335	0.09195044
34.34	0.09149079
34.345	0.09086913
34.35	0.09030243
34.355	0.08967589
34.36	0.08915388
34.365	0.08864483
34.37	0.08812665
34.375	0.08779524
34.38	0.08750895
34.385	0.08725276
34.39	0.08705115
34.395	0.08705179
34.4	0.08707962
34.405	0.08718661
34.41	0.08729799
34.415	0.08735108
34.42	0.0874695
34.425	0.08760729
34.43	0.0877444
34.435	0.08795536
34.44	0.08823114
34.445	0.08848134
34.45	0.0886182
34.455	0.08874701
34.46	0.08871764
34.465	0.08890293
34.47	0.08906789
34.475	0.08922356
34.48	0.08943128
34.485	0.08964218
34.49	0.08999227
34.495	0.09031429
34.5	0.09067362
34.505	0.09101679
34.51	0.09129646
34.515	0.091455
34.52	0.09155069
34.525	0.09159614
34.53	0.09171884
34.535	0.09187815
34.54	0.0920512
34.545	0.09226943
34.55	0.09258275
34.555	0.09280285
34.56	0.09304776
34.565	0.09327841
34.57	0.09347576
34.575	0.0938072
34.58	0.09384652
34.585	0.09391991
34.59	0.09391953
34.595	0.09384628
34.6	0.09375524
34.605	0.09364046
34.61	0.09353664
34.615	0.09342446
34.62	0.09335923
34.625	0.09319259
34.63	0.09305496
34.635	0.09291767
34.64	0.09276751
34.645	0.0926197
34.65	0.09251058
34.655	0.09238299
34.66	0.09222519
34.665	0.09214519
34.67	0.09208984
34.675	0.09204387
34.68	0.09206199
34.685	0.09208954
34.69	0.09211631
34.695	0.09198702
34.7	0.09186441
34.705	0.09167794
34.71	0.09152498
34.715	0.09143654
34.72	0.09139939
34.725	0.09139292
34.73	0.09142212
34.735	0.09144854
34.74	0.09144109
34.745	0.09151781
34.75	0.0915629
34.755	0.09160719
34.76	0.09168869
34.765	0.09178984
34.77	0.09188736
34.775	0.09199967
34.78	0.09185135
34.785	0.09181704
34.79	0.09162213
34.795	0.09128707
34.8	0.09092044
34.805	0.09045907
34.81	0.09000264
34.815	0.08957008
34.82	0.08917586
34.825	0.08879178
34.83	0.08842553
34.835	0.08794739
34.84	0.08750372
34.845	0.087065
34.85	0.08662735
34.855	0.08610146
34.86	0.08568045
34.865	0.08528827
34.87	0.0849752
34.875	0.08453162
34.88	0.08416513
34.885	0.08371233
34.89	0.08328222
34.895	0.08279341
34.9	0.0824073
34.905	0.08203102
34.91	0.08167673
34.915	0.08126366
34.92	0.08079782
34.925	0.08036729
34.93	0.07993628
34.935	0.07953092
34.94	0.0791605
34.945	0.07880409
34.95	0.07830135
34.955	0.0778033
34.96	0.07724248
34.965	0.0766928
34.97	0.07610644
34.975	0.07563301
34.98	0.0752314
34.985	0.07495772
34.99	0.07472664
34.995	0.07459275
35	0.0746672
35.005	0.07480758
35.01	0.07507816
35.015	0.07536515
35.02	0.0756709
35.025	0.07596774
35.03	0.07631528
35.035	0.07672933
35.04	0.07720319
35.045	0.07761182
35.05	0.07803817
35.055	0.07871759
35.06	0.07948608
35.065	0.08022987
35.07	0.0809661
35.075	0.08151942
35.08	0.08228531
35.085	0.08300267
35.09	0.08374701
35.095	0.08443974
35.1	0.08540451
35.105	0.08631269
35.11	0.08729531
35.115	0.08847354
35.12	0.0896624
35.125	0.0909343
35.13	0.09219382
35.135	0.0936556
35.14	0.09528077
35.145	0.09684324
35.15	0.09849637
35.155	0.1002051
35.16	0.101933
35.165	0.1036886
35.17	0.1054021
35.175	0.1073421
35.18	0.1090686
35.185	0.1107111
35.19	0.1123566
35.195	0.113963
35.2	0.1155753
35.205	0.1172351
35.21	0.1189076
35.215	0.1206413
35.22	0.1223356
35.225	0.1239016
35.23	0.1253943
35.235	0.1267796
35.24	0.1281916
35.245	0.1295877
35.25	0.1310683
35.255	0.1325197
35.26	0.1336712
35.265	0.1347661
35.27	0.1358541
35.275	0.1370404
35.28	0.1382704
35.285	0.1398244
35.29	0.1415545
35.295	0.1432803
35.3	0.1449847
35.305	0.1464002
35.31	0.1478002
35.315	0.1490775
35.32	0.1501335
35.325	0.1512178
35.33	0.152189
35.335	0.1531727
35.34	0.1538834
35.345	0.1545064
35.35	0.1551158
35.355	0.1559249
35.36	0.1567009
35.365	0.1574957
35.37	0.1584163
35.375	0.1593497
35.38	0.1599743
35.385	0.1607543
35.39	0.161946
35.395	0.163112
35.4	0.1642805
35.405	0.1653977
35.41	0.1664741
35.415	0.167606
35.42	0.1685444
35.425	0.1695936
35.43	0.1707142
35.435	0.171898
35.44	0.1731287
35.445	0.1742545
35.45	0.1753775
35.455	0.1763736
35.46	0.1773783
35.465	0.1785398
35.47	0.1797326
35.475	0.1808465
35.48	0.18183
35.485	0.1828179
35.49	0.1831459
35.495	0.1832528
35.5	0.1833476
35.505	0.1834469
35.51	0.1836704
35.515	0.1839156
35.52	0.1842767
35.525	0.1847008
35.53	0.1850881
35.535	0.185534
35.54	0.1859008
35.545	0.186568
35.55	0.1871205
35.555	0.1878439
35.56	0.1881081
35.565	0.1883842
35.57	0.1885568
35.575	0.1885017
35.58	0.1884407
35.585	0.1885071
35.59	0.1884251
35.595	0.187673
35.6	0.186928
35.605	0.1861668
35.61	0.1854574
35.615	0.184616
35.62	0.1836087
35.625	0.1826929
35.63	0.1815728
35.635	0.1804701
35.64	0.1793195
35.645	0.1781258
35.65	0.1769549
35.655	0.175773
35.66	0.1746256
35.665	0.1734649
35.67	0.1721851
35.675	0.1708585
35.68	0.1695965
35.685	0.1683299
35.69	0.1671413
35.695	0.1662693
35.7	0.1653563
35.705	0.1644674
35.71	0.1636003
35.715	0.162705
35.72	0.1617845
35.725	0.1607222
35.73	0.1599654
35.735	0.1593471
35.74	0.1589338
35.745	0.1588116
35.75	0.1582396
35.755	0.1577232
35.76	0.1568994
35.765	0.1562825
35.77	0.1558055
35.775	0.1554028
35.78	0.1551309
35.785	0.1548314
35.79	0.1544799
35.795	0.1542036
35.8	0.1542375
35.805	0.1542766
35.81	0.1543452
35.815	0.154354
35.82	0.154496
35.825	0.1547373
35.83	0.1549989
35.835	0.1553745
35.84	0.1555959
35.845	0.155783
35.85	0.1560603
35.855	0.1563857
35.86	0.1567888
35.865	0.1572136
35.87	0.1576652
35.875	0.1581523
35.88	0.1586829
35.885	0.1591782
35.89	0.1597184
35.895	0.1600421
35.9	0.1604186
35.905	0.1610367
35.91	0.1617558
35.915	0.1626132
35.92	0.1637575
35.925	0.1649111
35.93	0.1660904
35.935	0.1667046
35.94	0.1673455
35.945	0.1675623
35.95	0.1673999
35.955	0.1674505
35.96	0.1675383
35.965	0.1676911
35.97	0.168118
35.975	0.1682638
35.98	0.168424
35.985	0.1685767
35.99	0.1687693
35.995	0.1690025
36	0.1693133
36.005	0.1698178
36.01	0.1703001
36.015	0.1707472
36.02	0.1712998
36.025	0.1720625
36.03	0.1732455
36.035	0.1743988
36.04	0.175608
36.045	0.177003
36.05	0.178394
36.055	0.1796539
36.06	0.1808467
36.065	0.1819004
36.07	0.1829613
36.075	0.1839238
36.08	0.1848908
36.085	0.1857932
36.09	0.1867087
36.095	0.1877009
36.1	0.1887914
36.105	0.1898884
36.11	0.1907433
36.115	0.1914248
36.12	0.191819
36.125	0.1917754
36.13	0.1917286
36.135	0.1917312
36.14	0.1919972
36.145	0.1919051
36.15	0.1919839
36.155	0.192127
36.16	0.1922685
36.165	0.1923602
36.17	0.1924644
36.175	0.1924377
36.18	0.1925317
36.185	0.1927498
36.19	0.1929407
36.195	0.1930985
36.2	0.1932498
36.205	0.1932772
36.21	0.1930855
36.215	0.192904
36.22	0.1927457
36.225	0.1924259
36.23	0.1917532
36.235	0.1903414
36.24	0.1888998
36.245	0.1873169
36.25	0.1855068
36.255	0.1839932
36.26	0.1825555
36.265	0.1812899
36.27	0.1800876
36.275	0.1788532
36.28	0.1776888
36.285	0.1765071
36.29	0.1753541
36.295	0.1742169
36.3	0.1728915
36.305	0.1715639
36.31	0.1701854
36.315	0.1689152
36.32	0.167658
36.325	0.1665515
36.33	0.16559
36.335	0.164589
36.34	0.1635102
36.345	0.1623418
36.35	0.161414
36.355	0.1605065
36.36	0.1596705
36.365	0.15884
36.37	0.1580664
36.375	0.1573395
36.38	0.1562426
36.385	0.1551591
36.39	0.1536984
36.395	0.1522612
36.4	0.1508511
36.405	0.1494205
36.41	0.1480589
36.415	0.1468567
36.42	0.1456492
36.425	0.144402
36.43	0.1432548
36.435	0.1422355
36.44	0.1416192
36.445	0.1410315
36.45	0.1405529
36.455	0.1402135
36.46	0.1390879
36.465	0.1378747
36.47	0.1362408
36.475	0.1345707
36.48	0.132851
36.485	0.1311632
36.49	0.1294899
36.495	0.1279618
36.5	0.1263619
36.505	0.1249018
36.51	0.123481
36.515	0.1220769
36.52	0.1206865
36.525	0.1192926
36.53	0.1178814
36.535	0.1165742
36.54	0.115322
36.545	0.1141006
36.55	0.1131282
36.555	0.1121063
36.56	0.111114
36.565	0.1101386
36.57	0.109184
36.575	0.1082369
36.58	0.1072798
36.585	0.1067849
36.59	0.106257
36.595	0.1060082
36.6	0.1057867
36.605	0.1054943
36.61	0.1052629
36.615	0.1050295
36.62	0.1047299
36.625	0.1044189
36.63	0.1041286
36.635	0.1038666
36.64	0.1037343
36.645	0.103726
36.65	0.1037468
36.655	0.1037413
36.66	0.103887
36.665	0.1045489
36.67	0.1052535
36.675	0.1062233
36.68	0.1071958
36.685	0.1081939
36.69	0.108975
36.695	0.1096803
36.7	0.109996
36.705	0.1102862
36.71	0.1104998
36.715	0.1104993
36.72	0.110498
36.725	0.110497
36.73	0.1105585
36.735	0.1106539
36.74	0.1106605
36.745	0.1106216
36.75	0.1105838
36.755	0.1101538
36.76	0.1097645
36.765	0.1092519
36.77	0.108713
36.775	0.1080797
36.78	0.1073881
36.785	0.1066067
36.79	0.1057589
36.795	0.1049039
36.8	0.1040483
36.805	0.1031316
36.81	0.1022492
36.815	0.1012614
36.82	0.1002771
36.825	0.09929707
36.83	0.09831304
36.835	0.09732938
36.84	0.09627685
36.845	0.09511656
36.85	0.09386205
36.855	0.0925117
36.86	0.09115247
36.865	0.08942527
36.87	0.08768208
36.875	0.08590538
36.88	0.08407191
36.885	0.08219409
36.89	0.08030073
36.895	0.0785222
36.9	0.07675943
36.905	0.07522936
36.91	0.07374176
36.915	0.07228965
36.92	0.070972
36.925	0.06962768
36.93	0.06826501
36.935	0.06685412
36.94	0.06532152
36.945	0.06391302
36.95	0.06245996
36.955	0.06102418
36.96	0.05991701
36.965	0.05884668
36.97	0.05789333
36.975	0.05693037
36.98	0.05603423
36.985	0.05519358
36.99	0.05445144
36.995	0.05379928
37	0.05316001
37.005	0.05251012
37.01	0.05190715
37.015	0.05128576
37.02	0.05075159
37.025	0.05016533
37.03	0.04964259
37.035	0.04911896
37.04	0.04859222
37.045	0.04811258
37.05	0.0477948
37.055	0.04755327
37.06	0.04739909
37.065	0.04714548
37.07	0.04721844
37.075	0.04727974
37.08	0.04734718
37.085	0.04745813
37.09	0.04761421
37.095	0.04771422
37.1	0.04785498
37.105	0.04802703
37.11	0.04832263
37.115	0.04858055
37.12	0.04879506
37.125	0.04905171
37.13	0.04932159
37.135	0.04959066
37.14	0.04986823
37.145	0.05022132
37.15	0.05044225
37.155	0.05070718
37.16	0.0508625
37.165	0.051023
37.17	0.05115568
37.175	0.05128944
37.18	0.05143627
37.185	0.05159548
37.19	0.05172149
37.195	0.05184765
37.2	0.05195138
37.205	0.05205583
37.21	0.05219744
37.215	0.05233189
37.22	0.0525112
37.225	0.0526918
37.23	0.05290731
37.235	0.05303233
37.24	0.05315848
37.245	0.05323524
37.25	0.05331853
37.255	0.05333
37.26	0.05334278
37.265	0.05333424
37.27	0.05339649
37.275	0.05347085
37.28	0.05355607
37.285	0.05364662
37.29	0.05370231
37.295	0.05369661
37.3	0.05369029
37.305	0.05362031
37.31	0.0535023
37.315	0.05317872
37.32	0.05286699
37.325	0.0525708
37.33	0.05230547
37.335	0.05203303
37.34	0.05172413
37.345	0.05142861
37.35	0.05111577
37.355	0.05087471
37.36	0.05063245
37.365	0.05044706
37.37	0.05029086
37.375	0.05011714
37.38	0.04992644
37.385	0.04973787
37.39	0.04954925
37.395	0.04938526
37.4	0.04922897
37.405	0.0489679
37.41	0.04870739
37.415	0.04836151
37.42	0.04804877
37.425	0.04765072
37.43	0.04724506
37.435	0.04683601
37.44	0.04648774
37.445	0.04611855
37.45	0.04577299
37.455	0.04543527
37.46	0.04509829
37.465	0.04475825
37.47	0.0444643
37.475	0.0441748
37.48	0.04385839
37.485	0.04352469
37.49	0.04317068
37.495	0.04284262
37.5	0.04253302
37.505	0.04225027
37.51	0.04200045
37.515	0.0417914
37.52	0.04170608
37.525	0.04162752
37.53	0.04155746
37.535	0.04140991
37.54	0.04120873
37.545	0.04106752
37.55	0.0408993
37.555	0.04073809
37.56	0.04054913
37.565	0.04037787
37.57	0.04020117
37.575	0.03994378
37.58	0.03969656
37.585	0.03943636
37.59	0.03916347
37.595	0.03888756
37.6	0.03861161
37.605	0.03833503
37.61	0.03816
37.615	0.03797532
37.62	0.03783367
37.625	0.03762685
37.63	0.03750147
37.635	0.03739503
37.64	0.03724065
37.645	0.03706175
37.65	0.03692462
37.655	0.03679563
37.66	0.03664938
37.665	0.03654272
37.67	0.03645424
37.675	0.03628743
37.68	0.0360978
37.685	0.03593062
37.69	0.03577435
37.695	0.03563192
37.7	0.03559502
37.705	0.03556086
37.71	0.03559543
37.715	0.03563755
37.72	0.0356678
37.725	0.03570765
37.73	0.03573549
37.735	0.03579242
37.74	0.03596373
37.745	0.03618631
37.75	0.03635229
37.755	0.03653365
37.76	0.0367284
37.765	0.03694904
37.77	0.03723994
37.775	0.03752766
37.78	0.03787258
37.785	0.03822656
37.79	0.03859936
37.795	0.03897303
37.8	0.03934379
37.805	0.03979036
37.81	0.04020097
37.815	0.04060279
37.82	0.04106447
37.825	0.04152928
37.83	0.04212995
37.835	0.04266116
37.84	0.0431655
37.845	0.04368546
37.85	0.04421917
37.855	0.04471097
37.86	0.04519629
37.865	0.04568187
37.87	0.04614715
37.875	0.04658844
37.88	0.04710306
37.885	0.0476197
37.89	0.0481218
37.895	0.04861899
37.9	0.04910687
37.905	0.04944867
37.91	0.04979455
37.915	0.05005541
37.92	0.05031465
37.925	0.05057654
37.93	0.05091476
37.935	0.05125521
37.94	0.0515877
37.945	0.05181076
37.95	0.0520237
37.955	0.05223343
37.96	0.05244061
37.965	0.05263329
37.97	0.05283194
37.975	0.05288923
37.98	0.05294676
37.985	0.05297387
37.99	0.05305282
37.995	0.05313733
38	0.053276
38.005	0.0534431
38.01	0.05347209
38.015	0.05351218
38.02	0.05355676
38.025	0.05351101
38.03	0.05346555
38.035	0.05322839
38.04	0.05301399
38.045	0.05279979
38.05	0.05257922
38.055	0.05234368
38.06	0.05210648
38.065	0.05186835
38.07	0.05162625
38.075	0.0513991
38.08	0.05116697
38.085	0.05084366
38.09	0.05054735
38.095	0.05024989
38.1	0.0499507
38.105	0.04965113
38.11	0.04938706
38.115	0.0491732
38.12	0.04896838
38.125	0.04877625
38.13	0.04858325
38.135	0.04821566
38.14	0.04785056
38.145	0.04743643
38.15	0.04706996
38.155	0.04670554
38.16	0.04635567
38.165	0.0460041
38.17	0.04565546
38.175	0.04528092
38.18	0.04500166
38.185	0.04472624
38.19	0.04447289
38.195	0.0440918
38.2	0.04369293
38.205	0.04315853
38.21	0.04256456
38.215	0.04207155
38.22	0.04158589
38.225	0.0410911
38.23	0.0406908
38.235	0.04030299
38.24	0.04003613
38.245	0.03977566
38.25	0.03952399
38.255	0.03927905
38.26	0.03904689
38.265	0.03885034
38.27	0.03865332
38.275	0.03846286
38.28	0.03825012
38.285	0.03804882
38.29	0.03791266
38.295	0.037704
38.3	0.03749718
38.305	0.03728347
38.31	0.0370701
38.315	0.03688787
38.32	0.03656456
38.325	0.03626853
38.33	0.03593119
38.335	0.03559026
38.34	0.03538781
38.345	0.03521436
38.35	0.03507356
38.355	0.03497152
38.36	0.03489362
38.365	0.0348303
38.37	0.03476694
38.375	0.03470097
38.38	0.03461816
38.385	0.03451537
38.39	0.03440412
38.395	0.03429676
38.4	0.0342696
38.405	0.03429084
38.41	0.03439591
38.415	0.03449624
38.42	0.03456239
38.425	0.034613
38.43	0.03466318
38.435	0.03461708
38.44	0.0346037
38.445	0.03460834
38.45	0.0346808
38.455	0.03475439
38.46	0.03483221
38.465	0.03488866
38.47	0.03496516
38.475	0.03504295
38.48	0.03511333
38.485	0.03519128
38.49	0.03527951
38.495	0.03536067
38.5	0.03548116
38.505	0.03560139
38.51	0.03572636
38.515	0.03586111
38.52	0.03599474
38.525	0.03620258
38.53	0.03642907
38.535	0.03667328
38.54	0.03691882
38.545	0.03712347
38.55	0.03724983
38.555	0.03738059
38.56	0.03745745
38.565	0.03750609
38.57	0.03752728
38.575	0.03754834
38.58	0.03757681
38.585	0.03762863
38.59	0.03768795
38.595	0.03774532
38.6	0.03778452
38.605	0.03783347
38.61	0.03779703
38.615	0.0377613
38.62	0.03774813
38.625	0.03776122
38.63	0.03777308
38.635	0.03778664
38.64	0.03785625
38.645	0.03781798
38.65	0.03776061
38.655	0.03756958
38.66	0.03737438
38.665	0.03717257
38.67	0.03698299
38.675	0.03671317
38.68	0.03644213
38.685	0.03617289
38.69	0.03590683
38.695	0.03561468
38.7	0.0353188
38.705	0.0350216
38.71	0.03472077
38.715	0.03441954
38.72	0.03409637
38.725	0.03377223
38.73	0.03343905
38.735	0.03306944
38.74	0.03267875
38.745	0.03229035
38.75	0.03193097
38.755	0.03161691
38.76	0.03131316
38.765	0.03104359
38.77	0.03076484
38.775	0.03050046
38.78	0.03024639
38.785	0.02997253
38.79	0.0297103
38.795	0.0294405
38.8	0.0292213
38.805	0.0290475
38.81	0.02886504
38.815	0.02875154
38.82	0.02864332
38.825	0.0285456
38.83	0.02840027
38.835	0.02826328
38.84	0.02815499
38.845	0.02801389
38.85	0.02794434
38.855	0.02788967
38.86	0.02791962
38.865	0.02803089
38.87	0.02814479
38.875	0.02826688
38.88	0.0284123
38.885	0.02861384
38.89	0.0288114
38.895	0.02900891
38.9	0.0292246
38.905	0.02945779
38.91	0.02967877
38.915	0.02990603
38.92	0.03012356
38.925	0.03035476
38.93	0.03057868
38.935	0.03081147
38.94	0.03107074
38.945	0.03134566
38.95	0.03160001
38.955	0.03186749
38.96	0.03213544
38.965	0.03238742
38.97	0.03262071
38.975	0.03286741
38.98	0.03311305
38.985	0.03333999
38.99	0.03357475
38.995	0.03378149
39	0.03399287
39.005	0.03412563
39.01	0.03420117
39.015	0.03429804
39.02	0.03439076
39.025	0.03447563
39.03	0.03465264
39.035	0.03485291
39.04	0.0351253
39.045	0.03535287
39.05	0.03559189
39.055	0.03584923
39.06	0.03611057
39.065	0.03637703
39.07	0.0365121
39.075	0.03666214
39.08	0.03680306
39.085	0.03695146
39.09	0.03701168
39.095	0.03712384
39.1	0.03723311
39.105	0.03736541
39.11	0.03747593
39.115	0.03758854
39.12	0.03769034
39.125	0.03786874
39.13	0.03803093
39.135	0.03819765
39.14	0.03837495
39.145	0.0385139
39.15	0.03864685
39.155	0.03878245
39.16	0.03886615
39.165	0.03897334
39.17	0.03907744
39.175	0.03919079
39.18	0.03930794
39.185	0.03942236
39.19	0.03953764
39.195	0.0396539
39.2	0.03978979
39.205	0.03994538
39.21	0.04013055
39.215	0.04034398
39.22	0.0405334
39.225	0.04071441
39.23	0.04089346
39.235	0.04089329
39.24	0.04090514
39.245	0.04080391
39.25	0.04071511
39.255	0.04062804
39.26	0.04051794
39.265	0.04040147
39.27	0.04029599
39.275	0.04024794
39.28	0.0401774
39.285	0.04010309
39.29	0.04004204
39.295	0.04004719
39.3	0.03997917
39.305	0.03991863
39.31	0.03981213
39.315	0.03974666
39.32	0.03968677
39.325	0.03963638
39.33	0.03945384
39.335	0.03930566
39.34	0.03915171
39.345	0.03896163
39.35	0.03879833
39.355	0.03863874
39.36	0.03849123
39.365	0.0384162
39.37	0.03829601
39.375	0.03819621
39.38	0.03809834
39.385	0.03799461
39.39	0.03789237
39.395	0.03780225
39.4	0.03771575
39.405	0.03760991
39.41	0.03746434
39.415	0.03731934
39.42	0.03718433
39.425	0.03701739
39.43	0.03685048
39.435	0.03668579
39.44	0.03665485
39.445	0.03659291
39.45	0.03658254
39.455	0.03657537
39.46	0.03656347
39.465	0.03656369
39.47	0.03655743
39.475	0.03653147
39.48	0.03653037
39.485	0.03665291
39.49	0.03680116
39.495	0.03695507
39.5	0.03705377
39.505	0.03716209
39.51	0.03724534
39.515	0.03734545
39.52	0.0373748
39.525	0.03740005
39.53	0.0374163
39.535	0.03749486
39.54	0.03754926
39.545	0.0376093
39.55	0.03771633
39.555	0.03780093
39.56	0.03791228
39.565	0.03800466
39.57	0.03801104
39.575	0.03803029
39.58	0.03802327
39.585	0.03802275
39.59	0.03803711
39.595	0.03806499
39.6	0.03808132
39.605	0.03809224
39.61	0.03811382
39.615	0.03814676
39.62	0.03817809
39.625	0.03823418
39.63	0.03832465
39.635	0.03843
39.64	0.03853282
39.645	0.03857731
39.65	0.03863832
39.655	0.03869743
39.66	0.03878371
39.665	0.03887623
39.67	0.03896926
39.675	0.03906452
39.68	0.03915085
39.685	0.03921111
39.69	0.03905374
39.695	0.03886002
39.7	0.03864339
39.705	0.03845162
39.71	0.03827338
39.715	0.03810782
39.72	0.03794459
39.725	0.03782076
39.73	0.03769459
39.735	0.03757931
39.74	0.0374617
39.745	0.03734746
39.75	0.03722678
39.755	0.03704191
39.76	0.03691958
39.765	0.03673873
39.77	0.03657459
39.775	0.03648599
39.78	0.03643505
39.785	0.03639517
39.79	0.03633525
39.795	0.03624336
39.8	0.03612344
39.805	0.03599874
39.81	0.03586963
39.815	0.03574879
39.82	0.03563324
39.825	0.03553322
39.83	0.03532397
39.835	0.03512625
39.84	0.03490794
39.845	0.03469061
39.85	0.03450703
39.855	0.0343252
39.86	0.03415232
39.865	0.03392984
39.87	0.03369902
39.875	0.03346973
39.88	0.03325331
39.885	0.03307642
39.89	0.03286955
39.895	0.03283209
39.9	0.03281041
39.905	0.03280207
39.91	0.03279221
39.915	0.0327965
39.92	0.03280633
39.925	0.03281831
39.93	0.03282995
39.935	0.03284791
39.94	0.03284733
39.945	0.03285174
39.95	0.03280732
39.955	0.03276831
39.96	0.03279084
39.965	0.03270934
39.97	0.03266663
39.975	0.03260642
39.98	0.03248182
39.985	0.0323376
39.99	0.0322141
39.995	0.03214298
40	0.03210957
40.005	0.03209923
40.01	0.03210874
40.015	0.03212443
40.02	0.03213812
40.025	0.03215372
40.03	0.03213756
40.035	0.03223319
40.04	0.03236598
40.045	0.03250763
40.05	0.03269464
40.055	0.03287642
40.06	0.03308971
40.065	0.03330267
40.07	0.03353642
40.075	0.03377046
40.08	0.03399594
40.085	0.03420113
40.09	0.03436768
40.095	0.03456872
40.1	0.03469711
40.105	0.03482817
40.11	0.03496275
40.115	0.03511359
40.12	0.03524287
40.125	0.03536516
40.13	0.03549365
40.135	0.03560821
40.14	0.03571583
40.145	0.03584178
40.15	0.03596848
40.155	0.0361329
40.16	0.0362946
40.165	0.03644909
40.17	0.03665239
40.175	0.03684338
40.18	0.03705324
40.185	0.0372861
40.19	0.03745932
40.195	0.03759641
40.2	0.03766561
40.205	0.03770638
40.21	0.03773627
40.215	0.037746
40.22	0.03776247
40.225	0.03775554
40.23	0.03775554
40.235	0.03779238
40.24	0.03776434
40.245	0.03762891
40.25	0.03748877
40.255	0.03728842
40.26	0.03709013
40.265	0.0368414
40.27	0.03662461
40.275	0.03639179
40.28	0.03618033
40.285	0.03597098
40.29	0.03576398
40.295	0.03558834
40.3	0.03540528
40.305	0.03527298
40.31	0.03514371
40.315	0.03500682
40.32	0.03486252
40.325	0.03475123
40.33	0.03465615
40.335	0.03454875
40.34	0.03445034
40.345	0.03435604
40.35	0.0342478
40.355	0.03414959
40.36	0.03405082
40.365	0.03395067
40.37	0.03383028
40.375	0.03370339
40.38	0.03359801
40.385	0.03346902
40.39	0.03335167
40.395	0.03328051
40.4	0.03322654
40.405	0.03322209
40.41	0.03323186
40.415	0.03324213
40.42	0.03326376
40.425	0.03326876
40.43	0.0332927
40.435	0.03331267
40.44	0.0332809
40.445	0.03330895
40.45	0.03340454
40.455	0.03351097
40.46	0.03363045
40.465	0.03374594
40.47	0.03386121
40.475	0.03389281
40.48	0.03393472
40.485	0.03392637
40.49	0.03391944
40.495	0.03392117
40.5	0.03388455
40.505	0.03385701
40.51	0.03379679
40.515	0.03373184
40.52	0.0336706
40.525	0.03357437
40.53	0.03344704
40.535	0.03346511
40.54	0.03348871
40.545	0.03360032
40.55	0.03371526
40.555	0.03382747
40.56	0.03392296
40.565	0.0340188
40.57	0.03414768
40.575	0.03425436
40.58	0.03437007
40.585	0.03449334
40.59	0.03462812
40.595	0.03473817
40.6	0.03485537
40.605	0.03504507
40.61	0.03523847
40.615	0.03554861
40.62	0.03585993
40.625	0.03651456
40.63	0.03722023
40.635	0.03805623
40.64	0.03885492
40.645	0.03965605
40.65	0.04039887
40.655	0.04113915
40.66	0.04186353
40.665	0.04257652
40.67	0.04338825
40.675	0.0442001
40.68	0.04505717
40.685	0.04590132
40.69	0.04674951
40.695	0.04760585
40.7	0.04844142
40.705	0.0492711
40.71	0.05008772
40.715	0.05090707
40.72	0.05171417
40.725	0.05251288
40.73	0.05332094
40.735	0.05411222
40.74	0.05468659
40.745	0.05525699
40.75	0.05571571
40.755	0.05616663
40.76	0.05661981
40.765	0.05707757
40.77	0.05753206
40.775	0.05795645
40.78	0.05839953
40.785	0.05883904
40.79	0.05923951
40.795	0.05963226
40.8	0.06003172
40.805	0.06042207
40.81	0.0607291
40.815	0.06101234
40.82	0.06115782
40.825	0.06130297
40.83	0.06104575
40.835	0.06071858
40.84	0.0602078
40.845	0.05971334
40.85	0.05922613
40.855	0.05875153
40.86	0.05825939
40.865	0.0577561
40.87	0.05724596
40.875	0.05657204
40.88	0.05594337
40.885	0.05525274
40.89	0.05455234
40.895	0.05387457
40.9	0.05316422
40.905	0.05244641
40.91	0.05170922
40.915	0.05095843
40.92	0.05018878
40.925	0.04940737
40.93	0.04860601
40.935	0.04778484
40.94	0.04697023
40.945	0.04627409
40.95	0.04557451
40.955	0.04492744
40.96	0.04427783
40.965	0.0437947
40.97	0.04329432
40.975	0.04284842
40.98	0.04240489
40.985	0.04198274
40.99	0.04155626
40.995	0.04117469
41	0.04081024
41.005	0.0404378
41.01	0.04006938
41.015	0.03977415
41.02	0.03949402
41.025	0.03933877
41.03	0.03920717
41.035	0.03936988
41.04	0.03958564
41.045	0.03995057
41.05	0.04027898
41.055	0.04061303
41.06	0.04093688
41.065	0.04127954
41.07	0.04182363
41.075	0.04236795
41.08	0.04312867
41.085	0.0437383
41.09	0.04437411
41.095	0.04505185
41.1	0.04564438
41.105	0.04621292
41.11	0.04677504
41.115	0.04734416
41.12	0.04791723
41.125	0.04865424
41.13	0.04937824
41.135	0.05013325
41.14	0.05089312
41.145	0.0516357
41.15	0.05236497
41.155	0.05306562
41.16	0.05376008
41.165	0.05443993
41.17	0.05482485
41.175	0.05520774
41.18	0.05552745
41.185	0.05584077
41.19	0.05616146
41.195	0.05649764
41.2	0.05706154
41.205	0.05760099
41.21	0.05833562
41.215	0.05905968
41.22	0.0597702
41.225	0.06047572
41.23	0.06114649
41.235	0.06178647
41.24	0.06244619
41.245	0.06309966
41.25	0.06375015
41.255	0.06443443
41.26	0.06507596
41.265	0.06571529
41.27	0.06635219
41.275	0.06673497
41.28	0.06712614
41.285	0.06735158
41.29	0.06764056
41.295	0.06795055
41.3	0.06828739
41.305	0.06865042
41.31	0.06902231
41.315	0.06941782
41.32	0.0698285
41.325	0.07021383
41.33	0.07050897
41.335	0.07083192
41.34	0.07123532
41.345	0.0716112
41.35	0.07197482
41.355	0.07233279
41.36	0.07271378
41.365	0.07312474
41.37	0.07354039
41.375	0.07406095
41.38	0.07458928
41.385	0.07514341
41.39	0.07571265
41.395	0.07622505
41.4	0.07669898
41.405	0.07681627
41.41	0.07693914
41.415	0.07676517
41.42	0.07666241
41.425	0.07655541
41.43	0.07644478
41.435	0.0763449
41.44	0.07627516
41.445	0.07619455
41.45	0.07617699
41.455	0.0761525
41.46	0.07607834
41.465	0.07602279
41.47	0.07597265
41.475	0.07589748
41.48	0.07595846
41.485	0.07600227
41.49	0.07612018
41.495	0.0762068
41.5	0.07631503
41.505	0.07628558
41.51	0.07638593
41.515	0.07648716
41.52	0.07658165
41.525	0.07690356
41.53	0.07734964
41.535	0.07807503
41.54	0.07875539
41.545	0.07923797
41.55	0.07974738
41.555	0.08027166
41.56	0.08080105
41.565	0.0813026
41.57	0.0817411
41.575	0.08223372
41.58	0.0827233
41.585	0.08323463
41.59	0.08369863
41.595	0.0841345
41.6	0.08457698
41.605	0.08503181
41.61	0.08562933
41.615	0.08622932
41.62	0.08696538
41.625	0.08757294
41.63	0.08816898
41.635	0.08877656
41.64	0.08941576
41.645	0.09005913
41.65	0.09068212
41.655	0.09119864
41.66	0.09170455
41.665	0.09223202
41.67	0.0927577
41.675	0.09331274
41.68	0.09388289
41.685	0.09442739
41.69	0.0949755
41.695	0.09552242
41.7	0.09610842
41.705	0.09661638
41.71	0.09726726
41.715	0.09780229
41.72	0.09838204
41.725	0.09895179
41.73	0.09913397
41.735	0.09914739
41.74	0.09858393
41.745	0.09802114
41.75	0.09760466
41.755	0.0971938
41.76	0.09678673
41.765	0.09639283
41.77	0.09603823
41.775	0.09571301
41.78	0.09530263
41.785	0.09495999
41.79	0.09455166
41.795	0.09415846
41.8	0.09378987
41.805	0.09343083
41.81	0.09307596
41.815	0.09274942
41.82	0.09241884
41.825	0.09206413
41.83	0.09176413
41.835	0.09147359
41.84	0.09115934
41.845	0.09080325
41.85	0.09036845
41.855	0.08996692
41.86	0.08962268
41.865	0.08929925
41.87	0.08916533
41.875	0.08903196
41.88	0.08887758
41.885	0.08871193
41.89	0.08853096
41.895	0.08835459
41.9	0.0881772
41.905	0.08793211
41.91	0.08773997
41.915	0.08737098
41.92	0.08690042
41.925	0.08632541
41.93	0.08576977
41.935	0.08543598
41.94	0.08521584
41.945	0.08540837
41.95	0.08560847
41.955	0.085656
41.96	0.08564512
41.965	0.08560876
41.97	0.0856066
41.975	0.08552396
41.98	0.08548061
41.985	0.08544239
41.99	0.0852536
41.995	0.08511705
42	0.08504644
42.005	0.08497325
42.01	0.08491382
42.015	0.08487471
42.02	0.08482012
42.025	0.08476927
42.03	0.08488648
42.035	0.08500274
42.04	0.08545266
42.045	0.08593452
42.05	0.08644478
42.055	0.08708969
42.06	0.08767904
42.065	0.08824281
42.07	0.08877205
42.075	0.08895778
42.08	0.08913956
42.085	0.08925937
42.09	0.0893824
42.095	0.08952277
42.1	0.08966069
42.105	0.08981105
42.11	0.08999691
42.115	0.09020876
42.12	0.09050809
42.125	0.09091241
42.13	0.09136993
42.135	0.09173875
42.14	0.09210623
42.145	0.09248681
42.15	0.09283004
42.155	0.09329617
42.16	0.09378661
42.165	0.09430097
42.17	0.09488204
42.175	0.09546178
42.18	0.09612384
42.185	0.09670333
42.19	0.09734266
42.195	0.09804568
42.2	0.09874246
42.205	0.09934681
42.21	0.09991268
42.215	0.1004667
42.22	0.1009939
42.225	0.1015118
42.23	0.1020103
42.235	0.1022539
42.24	0.1025007
42.245	0.1021828
42.25	0.1018508
42.255	0.1014483
42.26	0.1009061
42.265	0.1003848
42.27	0.09987296
42.275	0.09936049
42.28	0.09893916
42.285	0.09854964
42.29	0.09818014
42.295	0.09784157
42.3	0.09749355
42.305	0.09721283
42.31	0.09694311
42.315	0.09670175
42.32	0.09643794
42.325	0.0961611
42.33	0.09588303
42.335	0.0955842
42.34	0.09534648
42.345	0.09511032
42.35	0.09481963
42.355	0.09451794
42.36	0.09398165
42.365	0.09357271
42.37	0.09316663
42.375	0.09263374
42.38	0.09191161
42.385	0.0910969
42.39	0.09031261
42.395	0.08947153
42.4	0.08861269
42.405	0.08771953
42.41	0.08684034
42.415	0.08598046
42.42	0.08510362
42.425	0.08420419
42.43	0.08327742
42.435	0.08234878
42.44	0.08160922
42.445	0.08087012
42.45	0.08049202
42.455	0.08007239
42.46	0.07973074
42.465	0.07947436
42.47	0.07921687
42.475	0.07897432
42.48	0.07874452
42.485	0.07855099
42.49	0.07827984
42.495	0.07803295
42.5	0.07770855
42.505	0.07739431
42.51	0.07689796
42.515	0.0763928
42.52	0.07580302
42.525	0.0751842
42.53	0.07456745
42.535	0.07394236
42.54	0.07333772
42.545	0.07270512
42.55	0.07209774
42.555	0.07149162
42.56	0.07100886
42.565	0.07065693
42.57	0.07006239
42.575	0.06946982
42.58	0.06898898
42.585	0.0686927
42.59	0.06843312
42.595	0.06829693
42.6	0.06812646
42.605	0.06797605
42.61	0.0678379
42.615	0.06772677
42.62	0.06773854
42.625	0.06775931
42.63	0.06783807
42.635	0.06794682
42.64	0.06806989
42.645	0.06812451
42.65	0.06816495
42.655	0.06819228
42.66	0.06825336
42.665	0.06826977
42.67	0.06826527
42.675	0.06826599
42.68	0.06827059
42.685	0.06829439
42.69	0.06835792
42.695	0.06845599
42.7	0.06854778
42.705	0.06869601
42.71	0.06886077
42.715	0.06917644
42.72	0.06938665
42.725	0.0696303
42.73	0.06985804
42.735	0.07016438
42.74	0.07046948
42.745	0.07075041
42.75	0.07103821
42.755	0.07126308
42.76	0.07148913
42.765	0.07154985
42.77	0.07162528
42.775	0.07186308
42.78	0.07211244
42.785	0.07227819
42.79	0.07241707
42.795	0.07262042
42.8	0.07268418
42.805	0.07302387
42.81	0.07335939
42.815	0.07384137
42.82	0.07431402
42.825	0.0746236
42.83	0.07492991
42.835	0.07517033
42.84	0.07540227
42.845	0.07561594
42.85	0.07582792
42.855	0.07607586
42.86	0.07641321
42.865	0.07678373
42.87	0.07718306
42.875	0.07760542
42.88	0.07804543
42.885	0.07842381
42.89	0.07877164
42.895	0.07906402
42.9	0.0793644
42.905	0.07967319
42.91	0.08008788
42.915	0.08051092
42.92	0.08105637
42.925	0.08168416
42.93	0.08232267
42.935	0.08299304
42.94	0.08353663
42.945	0.08407841
42.95	0.08462417
42.955	0.08522201
42.96	0.08589221
42.965	0.08657678
42.97	0.08728847
42.975	0.08799564
42.98	0.08874106
42.985	0.08944681
42.99	0.09018681
42.995	0.09094261
43	0.0916246
43.005	0.09225444
43.01	0.09262539
43.015	0.09297731
43.02	0.09309974
43.025	0.09322725
43.03	0.09338791
43.035	0.09355193
43.04	0.09374204
43.045	0.09393227
43.05	0.09413085
43.055	0.09434582
43.06	0.09452701
43.065	0.09456487
43.07	0.09454411
43.075	0.09451059
43.08	0.09451342
43.085	0.09448634
43.09	0.09472288
43.095	0.09496461
43.1	0.09527177
43.105	0.09557154
43.11	0.09590995
43.115	0.09604056
43.12	0.09613559
43.125	0.09590955
43.13	0.09566647
43.135	0.09550771
43.14	0.095375
43.145	0.09533558
43.15	0.09533406
43.155	0.09537388
43.16	0.09535978
43.165	0.09528692
43.17	0.09527088
43.175	0.09527551
43.18	0.09527119
43.185	0.09508645
43.19	0.09492021
43.195	0.09478861
43.2	0.09463984
43.205	0.09451828
43.21	0.09447418
43.215	0.09441434
43.22	0.09435644
43.225	0.0944991
43.23	0.09463726
43.235	0.09478804
43.24	0.09493776
43.245	0.09519121
43.25	0.09547522
43.255	0.09584747
43.26	0.09621037
43.265	0.09670093
43.27	0.09727418
43.275	0.09804597
43.28	0.09881236
43.285	0.09951829
43.29	0.1002265
43.295	0.1004935
43.3	0.1007739
43.305	0.1009834
43.31	0.1012147
43.315	0.1013692
43.32	0.1016238
43.325	0.1018747
43.33	0.1022928
43.335	0.1027577
43.34	0.1030537
43.345	0.1033155
43.35	0.1035133
43.355	0.1036578
43.36	0.1037719
43.365	0.1038685
43.37	0.1039487
43.375	0.104061
43.38	0.104192
43.385	0.1043617
43.39	0.1046437
43.395	0.1049271
43.4	0.1051492
43.405	0.1053758
43.41	0.1056096
43.415	0.1058644
43.42	0.1062161
43.425	0.106587
43.43	0.1068225
43.435	0.1070645
43.44	0.1073284
43.445	0.1076401
43.45	0.1078497
43.455	0.1080114
43.46	0.1080161
43.465	0.1080181
43.47	0.1078469
43.475	0.10772
43.48	0.1072968
43.485	0.1069061
43.49	0.1064695
43.495	0.1060258
43.5	0.1057867
43.505	0.1055293
43.51	0.1052939
43.515	0.1050234
43.52	0.104825
43.525	0.1046255
43.53	0.1044283
43.535	0.1042408
43.54	0.1039494
43.545	0.1037372
43.55	0.1034779
43.555	0.1032342
43.56	0.1029963
43.565	0.1027115
43.57	0.102516
43.575	0.1023475
43.58	0.1019639
43.585	0.1015401
43.59	0.1011102
43.595	0.1006417
43.6	0.1002887
43.605	0.1000876
43.61	0.09992721
43.615	0.09995372
43.62	0.09991428
43.625	0.09980874
43.63	0.09972414
43.635	0.09968922
43.64	0.09964495
43.645	0.09948097
43.65	0.09920792
43.655	0.09885391
43.66	0.09851934
43.665	0.09835533
43.67	0.09819753
43.675	0.09807962
43.68	0.09782892
43.685	0.09772113
43.69	0.09754566
43.695	0.09744676
43.7	0.09736962
43.705	0.09735291
43.71	0.09734878
43.715	0.09736075
43.72	0.09739186
43.725	0.09734984
43.73	0.09732321
43.735	0.09736166
43.74	0.09739116
43.745	0.09760475
43.75	0.09787385
43.755	0.09831084
43.76	0.09876119
43.765	0.09922778
43.77	0.09972979
43.775	0.1000924
43.78	0.1004562
43.785	0.1009672
43.79	0.1015254
43.795	0.1019863
43.8	0.1024665
43.805	0.1027123
43.81	0.1027569
43.815	0.1027294
43.82	0.1023096
43.825	0.1019108
43.83	0.101623
43.835	0.1012471
43.84	0.10091
43.845	0.1005754
43.85	0.1003813
43.855	0.1002423
43.86	0.1001969
43.865	0.1001628
43.87	0.09998903
43.875	0.09981228
43.88	0.09968087
43.885	0.09961496
43.89	0.09955345
43.895	0.09952155
43.9	0.0994525
43.905	0.09935321
43.91	0.09914977
43.915	0.09894929
43.92	0.09875699
43.925	0.0985635
43.93	0.09838488
43.935	0.09817947
43.94	0.09788857
43.945	0.09758765
43.95	0.09704055
43.955	0.0963797
43.96	0.09546871
43.965	0.09451986
43.97	0.09359793
43.975	0.09267123
43.98	0.09185695
43.985	0.09104351
43.99	0.09016517
43.995	0.08924759
44	0.08840019
44.005	0.08752919
44.01	0.08677655
44.015	0.08612347
44.02	0.08550217
44.025	0.08517217
44.03	0.08485834
44.035	0.0845136
44.04	0.08423009
44.045	0.08394421
44.05	0.08366432
44.055	0.08328465
44.06	0.08295121
44.065	0.0826211
44.07	0.08227014
44.075	0.08197127
44.08	0.08168096
44.085	0.08128457
44.09	0.08104146
44.095	0.08081719
44.1	0.08067073
44.105	0.08057527
44.11	0.08050202
44.115	0.08047233
44.12	0.08042074
44.125	0.08031967
44.13	0.08025164
44.135	0.08019311
44.14	0.08022209
44.145	0.08027194
44.15	0.08043581
44.155	0.08078018
44.16	0.08118887
44.165	0.08174127
44.17	0.08234311
44.175	0.08294122
44.18	0.08354226
44.185	0.08404413
44.19	0.084527
44.195	0.08514402
44.2	0.08571386
44.205	0.086272
44.21	0.08682126
44.215	0.08737774
44.22	0.0879923
44.225	0.08860634
44.23	0.08911091
44.235	0.08978227
44.24	0.09028208
44.245	0.09100627
44.25	0.09164066
44.255	0.09228942
44.26	0.092937
44.265	0.09349631
44.27	0.09403288
44.275	0.09459082
44.28	0.09513281
44.285	0.09566541
44.29	0.09630962
44.295	0.09675296
44.3	0.09718956
44.305	0.09755341
44.31	0.09797365
44.315	0.09842534
44.32	0.09889082
44.325	0.09936954
44.33	0.09986673
44.335	0.1003326
44.34	0.1008391
44.345	0.1012408
44.35	0.1016758
44.355	0.1019593
44.36	0.1021791
44.365	0.102426
44.37	0.1026692
44.375	0.1029419
44.38	0.1030905
44.385	0.1032389
44.39	0.1034276
44.395	0.1036148
44.4	0.1036235
44.405	0.1037757
44.41	0.1039271
44.415	0.1041067
44.42	0.1042763
44.425	0.104291
44.43	0.1043081
44.435	0.1043429
44.44	0.1041012
44.445	0.1039562
44.45	0.1034712
44.455	0.103026
44.46	0.1025597
44.465	0.1021114
44.47	0.1018936
44.475	0.1016908
44.48	0.1015225
44.485	0.101378
44.49	0.101252
44.495	0.1010445
44.5	0.100866
44.505	0.1006849
44.51	0.1004605
44.515	0.1000673
44.52	0.09960146
44.525	0.0991483
44.53	0.0986837
44.535	0.09823176
44.54	0.09775174
44.545	0.09721256
44.55	0.09673199
44.555	0.09620254
44.56	0.09573374
44.565	0.09530209
44.57	0.09480592
44.575	0.09434519
44.58	0.09374262
44.585	0.09322527
44.59	0.09268326
44.595	0.09214653
44.6	0.09162983
44.605	0.09123383
44.61	0.09060381
44.615	0.08998573
44.62	0.08932588
44.625	0.08866659
44.63	0.08811585
44.635	0.08755503
44.64	0.08701797
44.645	0.08659357
44.65	0.08617666
44.655	0.08588484
44.66	0.08561197
44.665	0.0852968
44.67	0.08522598
44.675	0.08468779
44.68	0.08415648
44.685	0.0834807
44.69	0.08282118
44.695	0.08217564
44.7	0.08159146
44.705	0.08111432
44.71	0.08067252
44.715	0.08029487
44.72	0.08003212
44.725	0.08002417
44.73	0.07996733
44.735	0.07992273
44.74	0.0798464
44.745	0.07980775
44.75	0.07975796
44.755	0.07966168
44.76	0.07959983
44.765	0.07955009
44.77	0.07946547
44.775	0.07943089
44.78	0.07931751
44.785	0.07930186
44.79	0.07928958
44.795	0.07929994
44.8	0.0793202
44.805	0.07930207
44.81	0.07930189
44.815	0.07939662
44.82	0.07946098
44.825	0.07954969
44.83	0.07964208
44.835	0.07973747
44.84	0.07985207
44.845	0.08000495
44.85	0.08020198
44.855	0.08038076
44.86	0.08057988
44.865	0.08074554
44.87	0.08096427
