Interval=	0.005 s
ExcelDateTime=	4.6085580949222109e+004	3/4/2026 13:56:34.01279
TimeFormat=	StartOfBlock
DateFormat=	
ChannelTitle=	RMS Biceps
Range=	0.18 mV
92.35	0.2810149
92.355	0.2809496
92.36	0.2808724
92.365	0.2798426
92.37	0.2787722
92.375	0.2767412
92.38	0.2750354
92.385	0.273337
92.39	0.2720733
92.395	0.270995
92.4	0.2697709
92.405	0.2682632
92.41	0.2666792
92.415	0.2649253
92.42	0.263157
92.425	0.261937
92.43	0.2607095
92.435	0.2600034
92.44	0.2593327
92.445	0.2587183
92.45	0.2581506
92.455	0.257609
92.46	0.2568314
92.465	0.2559776
92.47	0.2549609
92.475	0.2535627
92.48	0.2521694
92.485	0.2509295
92.49	0.2502294
92.495	0.2493696
92.5	0.2488933
92.505	0.2474448
92.51	0.2463523
92.515	0.2446991
92.52	0.2433299
92.525	0.2419646
92.53	0.2405723
92.535	0.2391185
92.54	0.2373377
92.545	0.2355467
92.55	0.2338061
92.555	0.2321743
92.56	0.2306023
92.565	0.2290235
92.57	0.2281143
92.575	0.2272742
92.58	0.2273914
92.585	0.2272832
92.59	0.227409
92.595	0.2275764
92.6	0.2277375
92.605	0.2281757
92.61	0.2288109
92.615	0.2296156
92.62	0.2304493
92.625	0.2315676
92.63	0.2324097
92.635	0.233318
92.64	0.234058
92.645	0.2347427
92.65	0.2351052
92.655	0.2354231
92.66	0.2358237
92.665	0.2362888
92.67	0.2368287
92.675	0.2374848
92.68	0.2383415
92.685	0.2391979
92.69	0.2400766
92.695	0.2409027
92.7	0.2417637
92.705	0.2419392
92.71	0.2426235
92.715	0.2425375
92.72	0.2427402
92.725	0.2424991
92.73	0.242291
92.735	0.2420347
92.74	0.2421688
92.745	0.2424695
92.75	0.2427837
92.755	0.2431202
92.76	0.2435014
92.765	0.2438102
92.77	0.2441003
92.775	0.2443391
92.78	0.2445453
92.785	0.2440547
92.79	0.2437509
92.795	0.2433667
92.8	0.2426324
92.805	0.2420459
92.81	0.2411313
92.815	0.2401653
92.82	0.2389318
92.825	0.2377978
92.83	0.2362181
92.835	0.2347669
92.84	0.2331724
92.845	0.2316471
92.85	0.2301496
92.855	0.228842
92.86	0.22753
92.865	0.2260548
92.87	0.224645
92.875	0.2231779
92.88	0.2216324
92.885	0.2201286
92.89	0.2186648
92.895	0.2171703
92.9	0.2157543
92.905	0.2144323
92.91	0.21343
92.915	0.2123695
92.92	0.2117821
92.925	0.2112006
92.93	0.210817
92.935	0.2103702
92.94	0.2097312
92.945	0.208727
92.95	0.2077005
92.955	0.2066753
92.96	0.2056148
92.965	0.2044679
92.97	0.2033153
92.975	0.2023462
92.98	0.2013971
92.985	0.200515
92.99	0.2001837
92.995	0.199978
93	0.1995011
93.005	0.1995511
93.01	0.1992399
93.015	0.1990874
93.02	0.1989489
93.025	0.199046
93.03	0.1991604
93.035	0.1995315
93.04	0.1999242
93.045	0.2005288
93.05	0.2012398
93.055	0.2020585
93.06	0.2030672
93.065	0.2040103
93.07	0.2050164
93.075	0.2059773
93.08	0.2070735
93.085	0.2082915
93.09	0.2094129
93.095	0.2110809
93.1	0.2128656
93.105	0.2148872
93.11	0.2167702
93.115	0.2187136
93.12	0.2206842
93.125	0.2226268
93.13	0.2245432
93.135	0.2264597
93.14	0.2283437
93.145	0.2303847	#1 kiana LF 1 
93.15	0.2318671
93.155	0.2333414
93.16	0.2347708
93.165	0.2363062
93.17	0.2380659
93.175	0.2398291
93.18	0.2413467
93.185	0.2429308
93.19	0.2444547
93.195	0.2459
93.2	0.247096
93.205	0.2485569
93.21	0.2496068
93.215	0.2509782
93.22	0.2523724
93.225	0.2537908
93.23	0.255117
93.235	0.2563638
93.24	0.2576162
93.245	0.2589854
93.25	0.2601417
93.255	0.2611523
93.26	0.2618952
93.265	0.2623651
93.27	0.2628783
93.275	0.2636118
93.28	0.2643469
93.285	0.2650267
93.29	0.2655936
93.295	0.2662014
93.3	0.2659699
93.305	0.2656268
93.31	0.2648624
93.315	0.2641492
93.32	0.2633106
93.325	0.2624951
93.33	0.2616274
93.335	0.2607829
93.34	0.2599823
93.345	0.2592031
93.35	0.258345
93.355	0.2580019
93.36	0.2576767
93.365	0.2574444
93.37	0.2569886
93.375	0.2561261
93.38	0.2553076
93.385	0.2545281
93.39	0.2536878
93.395	0.2528344
93.4	0.2518344
93.405	0.2510515
93.41	0.2497497
93.415	0.2486276
93.42	0.2471316
93.425	0.2456161
93.43	0.2440682
93.435	0.242554
93.44	0.2411381
93.445	0.2397177
93.45	0.2381047
93.455	0.2365917
93.46	0.2351003
93.465	0.2337728
93.47	0.2325696
93.475	0.2313843
93.48	0.229719
93.485	0.2280894
93.49	0.226373
93.495	0.2249055
93.5	0.2235679
93.505	0.2224758
93.51	0.2217221
93.515	0.2209887
93.52	0.2205233
93.525	0.2202161
93.53	0.2198423
93.535	0.2195082
93.54	0.219129
93.545	0.2187055
93.55	0.2182858
93.555	0.2179276
93.56	0.2173507
93.565	0.2168064
93.57	0.2160303
93.575	0.2154544
93.58	0.2152006
93.585	0.2148556
93.59	0.2146929
93.595	0.2144232
93.6	0.2141867
93.605	0.2140354
93.61	0.2137181
93.615	0.2136311
93.62	0.2135978
93.625	0.2137507
93.63	0.2138917
93.635	0.2140059
93.64	0.2142001
93.645	0.2140475
93.65	0.2138904
93.655	0.2136337
93.66	0.213415
93.665	0.2133385
93.67	0.2132676
93.675	0.2131887
93.68	0.2130756
93.685	0.2133377
93.69	0.2135066
93.695	0.2137186
93.7	0.2134699
93.705	0.212883
93.71	0.2124161
93.715	0.211164
93.72	0.210099
93.725	0.2084502
93.73	0.2066535
93.735	0.2048968
93.74	0.2031821
93.745	0.2014711
93.75	0.1996892
93.755	0.1978781
93.76	0.1960727
93.765	0.1943413
93.77	0.1924639
93.775	0.1907203
93.78	0.1888304
93.785	0.1867566
93.79	0.1847154
93.795	0.1823526
93.8	0.180098
93.805	0.1778005
93.81	0.175523
93.815	0.1733939
93.82	0.1716069
93.825	0.1697006
93.83	0.1678021
93.835	0.1659083
93.84	0.163995
93.845	0.1618973
93.85	0.1601826
93.855	0.1585081
93.86	0.1569827
93.865	0.1554
93.87	0.1535958
93.875	0.1517625
93.88	0.149942
93.885	0.1480856
93.89	0.1458377
93.895	0.1436766
93.9	0.1415414
93.905	0.1397213
93.91	0.1380988
93.915	0.1365348
93.92	0.1359002
93.925	0.1352804
93.93	0.1353131
93.935	0.1354486
93.94	0.1355525
93.945	0.1354979
93.95	0.1354439
93.955	0.1354736
93.96	0.1355182
93.965	0.1355795
93.97	0.1357961
93.975	0.136109
93.98	0.1364118
93.985	0.1367972
93.99	0.1373341
93.995	0.1378506
94	0.1387802
94.005	0.1396468
94.01	0.1405234
94.015	0.141394
94.02	0.1420865
94.025	0.142371
94.03	0.1427868
94.035	0.1431991
94.04	0.1435989
94.045	0.1440331
94.05	0.1444443
94.055	0.1446438
94.06	0.144622
94.065	0.1446297
94.07	0.144724
94.075	0.1447918
94.08	0.1451307
94.085	0.1454711
94.09	0.1458327
94.095	0.1463218
94.1	0.1467629
94.105	0.1472528
94.11	0.147787
94.115	0.1483462
94.12	0.1489285
94.125	0.1490994
94.13	0.1491923
94.135	0.1488971
94.14	0.1486202
94.145	0.1483535
94.15	0.1481715
94.155	0.1480001
94.16	0.147838
94.165	0.1476971
94.17	0.147474
94.175	0.1470388
94.18	0.1466096
94.185	0.1462048
94.19	0.1458331
94.195	0.1453922
94.2	0.1449808
94.205	0.1442199
94.21	0.1434692
94.215	0.142712
94.22	0.1420037
94.225	0.141215
94.23	0.1406241
94.235	0.1399649
94.24	0.1393172
94.245	0.1386866
94.25	0.1380537
94.255	0.1376014
94.26	0.1373025
94.265	0.1372687
94.27	0.137222
94.275	0.1370593
94.28	0.1370085
94.285	0.1364505
94.29	0.1358644
94.295	0.1352899
94.3	0.1349044
94.305	0.134451
94.31	0.1338504
94.315	0.1331966
94.32	0.1325547
94.325	0.1318891
94.33	0.1313931
94.335	0.1310204
94.34	0.130925
94.345	0.1307879
94.35	0.1307558
94.355	0.1307229
94.36	0.1306624
94.365	0.1305815
94.37	0.1304536
94.375	0.130392
94.38	0.1304609
94.385	0.1305476
94.39	0.1305765
94.395	0.1305436
94.4	0.1306292
94.405	0.1307995
94.41	0.1312097
94.415	0.1316812
94.42	0.132131
94.425	0.1324778
94.43	0.1329579
94.435	0.1333931
94.44	0.1339433
94.445	0.1345596
94.45	0.1351718
94.455	0.1358727
94.46	0.1363702
94.465	0.1368247
94.47	0.1370601
94.475	0.1373078
94.48	0.1374499
94.485	0.1376258
94.49	0.1379565
94.495	0.1382843
94.5	0.1386048
94.505	0.1386817
94.51	0.1388325
94.515	0.1390517
94.52	0.1392869
94.525	0.1395334
94.53	0.1397628
94.535	0.14001
94.54	0.1401266
94.545	0.1401737
94.55	0.1402394
94.555	0.1400668
94.56	0.1398599
94.565	0.1396656
94.57	0.1394799
94.575	0.1393158
94.58	0.1391103
94.585	0.1389082
94.59	0.1387238
94.595	0.1387373
94.6	0.1388222
94.605	0.1389126
94.61	0.1388083
94.615	0.1384817
94.62	0.1381262
94.625	0.1377979
94.63	0.1375317
94.635	0.137256
94.64	0.1372023
94.645	0.1368194
94.65	0.1363845
94.655	0.1359036
94.66	0.1352131
94.665	0.1346287
94.67	0.1340366
94.675	0.1336041
94.68	0.1331564
94.685	0.1329249
94.69	0.132578
94.695	0.1323482
94.7	0.1321582
94.705	0.1319834
94.71	0.131905
94.715	0.1318493
94.72	0.1317181
94.725	0.1315946
94.73	0.1314538
94.735	0.1313351
94.74	0.1312126
94.745	0.1311494
94.75	0.1310861
94.755	0.1312615
94.76	0.1315778
94.765	0.1321474
94.77	0.1327372
94.775	0.1333266
94.78	0.13391
94.785	0.1345142
94.79	0.1350936
94.795	0.1355783
94.8	0.1357148
94.805	0.1357624
94.81	0.135551
94.815	0.1355325
94.82	0.1356347
94.825	0.135688
94.83	0.1357219
94.835	0.1357098
94.84	0.135748
94.845	0.1354038
94.85	0.1352783
94.855	0.1350228
94.86	0.1347572
94.865	0.1346016
94.87	0.1344478
94.875	0.1342633
94.88	0.133987
94.885	0.1337199
94.89	0.133413
94.895	0.1331595
94.9	0.1328621
94.905	0.1325403
94.91	0.1321628
94.915	0.1318125
94.92	0.1313921
94.925	0.1310426
94.93	0.1306872
94.935	0.1307495
94.94	0.1309441
94.945	0.1315853
94.95	0.1322318
94.955	0.1328927
94.96	0.1331626
94.965	0.1334387
94.97	0.1332413
94.975	0.1330871
94.98	0.1329537
94.985	0.1328729
94.99	0.1328116
94.995	0.1328271
95	0.1329796
95.005	0.1333221
95.01	0.1337279
95.015	0.1343361
95.02	0.1347308
95.025	0.1352368
95.03	0.1357507
95.035	0.136415
95.04	0.1371013
95.045	0.137765
95.05	0.1386111
95.055	0.1395373
95.06	0.1405348
95.065	0.1416361
95.07	0.1427563
95.075	0.1438421
95.08	0.1449565
95.085	0.1461358
95.09	0.1473143
95.095	0.1483103
95.1	0.1493416
95.105	0.150318
95.11	0.151286
95.115	0.1522788
95.12	0.153358
95.125	0.1545092
95.13	0.155736
95.135	0.1569746
95.14	0.1575108
95.145	0.1578409
95.15	0.1574816
95.155	0.1571171
95.16	0.1567644
95.165	0.1564758
95.17	0.1562374
95.175	0.156197
95.18	0.1560563
95.185	0.1558816
95.19	0.1556257
95.195	0.1553328
95.2	0.1549025
95.205	0.1543784
95.21	0.1539228
95.215	0.153423
95.22	0.1528725
95.225	0.1524065
95.23	0.1517736
95.235	0.1511823
95.24	0.1503445
95.245	0.1497257
95.25	0.149084
95.255	0.1484443
95.26	0.147687
95.265	0.1470727
95.27	0.1463045
95.275	0.1458785
95.28	0.1454695
95.285	0.1450994
95.29	0.1446902
95.295	0.1443308
95.3	0.1441324
95.305	0.1442092
95.31	0.1444605
95.315	0.1448053
95.32	0.1454476
95.325	0.1458671
95.33	0.1461976
95.335	0.1464667
95.34	0.1470506
95.345	0.148621
95.35	0.1507702
95.355	0.1533057
95.36	0.1558066
95.365	0.1582513
95.37	0.1607528
95.375	0.1631351
95.38	0.1655579
95.385	0.1684017
95.39	0.1712609
95.395	0.1742621
95.4	0.1772478
95.405	0.1802544
95.41	0.1832424
95.415	0.1860541
95.42	0.1888533
95.425	0.1917425
95.43	0.194606
95.435	0.1976759
95.44	0.2016719
95.445	0.2056825
95.45	0.209749
95.455	0.2137599
95.46	0.2177111
95.465	0.2215956
95.47	0.2254214
95.475	0.2292473
95.48	0.2325464
95.485	0.2359515
95.49	0.2397394
95.495	0.2434571
95.5	0.2473764
95.505	0.2512141
95.51	0.2546194
95.515	0.2578258
95.52	0.2609043
95.525	0.2636298
95.53	0.2663914
95.535	0.2692199
95.54	0.2719546
95.545	0.2745552
95.55	0.2765562
95.555	0.2789636
95.56	0.2813129
95.565	0.2847387
95.57	0.2881539
95.575	0.2914954
95.58	0.2950034
95.585	0.2986832
95.59	0.3018915
95.595	0.3051131
95.6	0.3081263
95.605	0.3113474
95.61	0.3146088
95.615	0.3179538
95.62	0.3213406
95.625	0.324687
95.63	0.3278794
95.635	0.3310337
95.64	0.3339881
95.645	0.3358117
95.65	0.3376025
95.655	0.338962
95.66	0.3404038
95.665	0.3418182
95.67	0.3432686
95.675	0.3445457
95.68	0.3458853
95.685	0.3473666
95.69	0.3490419
95.695	0.350071
95.7	0.3511664
95.705	0.3518646
95.71	0.3525534
95.715	0.3533874
95.72	0.3542781
95.725	0.3554073
95.73	0.3566467
95.735	0.35818
95.74	0.3596002
95.745	0.3610314
95.75	0.3622043
95.755	0.3636647
95.76	0.3640621
95.765	0.3644032
95.77	0.3631192
95.775	0.3618368
95.78	0.360564
95.785	0.3589643
95.79	0.3569514
95.795	0.3551056
95.8	0.3531105
95.805	0.3511882
95.81	0.3492024
95.815	0.3471514
95.82	0.345254
95.825	0.3432914
95.83	0.3416537
95.835	0.3400569
95.84	0.3385991
95.845	0.3372551
95.85	0.3363407
95.855	0.3356566
95.86	0.3356196
95.865	0.3355615
95.87	0.3356781
95.875	0.3358423
95.88	0.3362222
95.885	0.3364394
95.89	0.3366765
95.895	0.3361736
95.9	0.3359934
95.905	0.3358172
95.91	0.3358206
95.915	0.3359775
95.92	0.3363038
95.925	0.3366333
95.93	0.3370834
95.935	0.3375235
95.94	0.3373346
95.945	0.3371849
95.95	0.3371458
95.955	0.3375121
95.96	0.3376033
95.965	0.3385558
95.97	0.339658
95.975	0.3414789
95.98	0.3436059
95.985	0.3458925
95.99	0.3484218
95.995	0.3511905
96	0.3539084
96.005	0.3566802
96.01	0.3595277
96.015	0.3620708
96.02	0.3646162
96.025	0.3666389
96.03	0.3686772
96.035	0.3700817
96.04	0.3715437
96.045	0.372744
96.05	0.3739033
96.055	0.3750918
96.06	0.3759463
96.065	0.3760737
96.07	0.3759323
96.075	0.3755405
96.08	0.3749517
96.085	0.3741787
96.09	0.3734715
96.095	0.3727402
96.1	0.3723933
96.105	0.3720973
96.11	0.3716272
96.115	0.3711437
96.12	0.3704048
96.125	0.3694316
96.13	0.3684717
96.135	0.3667919
96.14	0.3651137
96.145	0.3637193
96.15	0.3623225
96.155	0.3607604
96.16	0.3588676
96.165	0.3571292
96.17	0.3546681
96.175	0.3520406
96.18	0.3495092
96.185	0.3462475
96.19	0.3426061
96.195	0.3387477
96.2	0.3346853
96.205	0.3305621
96.21	0.3263985
96.215	0.3219486
96.22	0.3172974
96.225	0.3124037
96.23	0.30754
96.235	0.3025467
96.24	0.2978544
96.245	0.292932
96.25	0.2881448
96.255	0.2831337
96.26	0.2780757
96.265	0.2730441
96.27	0.268432
96.275	0.2640219
96.28	0.2596262
96.285	0.2553521
96.29	0.251129
96.295	0.2468879
96.3	0.2425995
96.305	0.2382431
96.31	0.2336881
96.315	0.2291506
96.32	0.2245613
96.325	0.2200879
96.33	0.2155109
96.335	0.2107903
96.34	0.2064153
96.345	0.201943
96.35	0.1973564
96.355	0.1926838
96.36	0.1880409
96.365	0.1834965
96.37	0.1787576
96.375	0.1746718
96.38	0.1705377
96.385	0.1662121
96.39	0.1625426
96.395	0.1591652
96.4	0.1559243
96.405	0.1528234
96.41	0.1497385
96.415	0.1464924
96.42	0.1434396
96.425	0.1409277
96.43	0.1386916
96.435	0.1368229
96.44	0.1350092
96.445	0.1332073
96.45	0.1315549
96.455	0.1296338
96.46	0.1278935
96.465	0.1261396
96.47	0.1244842
96.475	0.12272
96.48	0.1209254
96.485	0.1192365
96.49	0.1174514
96.495	0.115625
96.5	0.1135767
96.505	0.1114368
96.51	0.1092121
96.515	0.1070939
96.52	0.1051214
96.525	0.10315
96.53	0.1011187
96.535	0.09932795
96.54	0.09746371
96.545	0.09611738
96.55	0.09474454
96.555	0.09336568
96.56	0.09196114
96.565	0.09048502
96.57	0.08908196
96.575	0.08780263
96.58	0.08671056
96.585	0.08571927
96.59	0.0848035
96.595	0.08390585
96.6	0.08299938
96.605	0.08203239
96.61	0.08104977
96.615	0.08001698
96.62	0.07911619
96.625	0.07818875
96.63	0.077258
96.635	0.07630421
96.64	0.07544667
96.645	0.07466527
96.65	0.07377499
96.655	0.07288151
96.66	0.07217073
96.665	0.07155879
96.67	0.07092873
96.675	0.07041279
96.68	0.07006875
96.685	0.06969513
96.69	0.0693222
96.695	0.06901205
96.7	0.06875688
96.705	0.06866371
96.71	0.06862979
96.715	0.06863226
96.72	0.06854381
96.725	0.0683191
96.73	0.06810721
96.735	0.06794411
96.74	0.06807951
96.745	0.068305
96.75	0.06852906
96.755	0.06875207
96.76	0.06897286
96.765	0.06916464
96.77	0.06942627
96.775	0.06972166
96.78	0.06994895
96.785	0.07020534
96.79	0.0705444
96.795	0.07091065
96.8	0.07128666
96.805	0.07167664
96.81	0.07211461
96.815	0.072606
96.82	0.0730902
96.825	0.07353362
96.83	0.07395366
96.835	0.07440001
96.84	0.07483659
96.845	0.07505155
96.85	0.07511609
96.855	0.07522854
96.86	0.07539345
96.865	0.07558434
96.87	0.07577407
96.875	0.07595943
96.88	0.07606496
96.885	0.07615777
96.89	0.07634055
96.895	0.07656311
96.9	0.07676757
96.905	0.07707182
96.91	0.0774043
96.915	0.07772946
96.92	0.07809966
96.925	0.07851268
96.93	0.07904837
96.935	0.07944927
96.94	0.0798165
96.945	0.07974102
96.95	0.07968598
96.955	0.07963328
96.96	0.0796089
96.965	0.07959394
96.97	0.07959807
96.975	0.07958489
96.98	0.07967929
96.985	0.08023458
96.99	0.08076147
96.995	0.08132525
97	0.08184286
97.005	0.08236034
97.01	0.08283278
97.015	0.08326293
97.02	0.08363387
97.025	0.08404154
97.03	0.08452227
97.035	0.08502109
97.04	0.08552329
97.045	0.08595064
97.05	0.08648288
97.055	0.08711898
97.06	0.08775174
97.065	0.08831236
97.07	0.08891922
97.075	0.08958171
97.08	0.09026128
97.085	0.09090818
97.09	0.09150708
97.095	0.09199228
97.1	0.09240936
97.105	0.09288251
97.11	0.09319963
97.115	0.09348302
97.12	0.09386909
97.125	0.09416715
97.13	0.09446892
97.135	0.09467587
97.14	0.0949578
97.145	0.09526053
97.15	0.09576044
97.155	0.09622467
97.16	0.09669675
97.165	0.09713206
97.17	0.09757922
97.175	0.09804627
97.18	0.09874564
97.185	0.09930594
97.19	0.09953423
97.195	0.09992636
97.2	0.1001183
97.205	0.1003197
97.21	0.1006186
97.215	0.1009867
97.22	0.101391
97.225	0.1018154
97.23	0.1022224
97.235	0.1025761
97.24	0.1031305
97.245	0.1036966
97.25	0.1043647
97.255	0.1050386
97.26	0.1056562
97.265	0.1062702
97.27	0.1068886
97.275	0.1074942
97.28	0.1080018
97.285	0.1085777
97.29	0.109174
97.295	0.1098805
97.3	0.1109116
97.305	0.1119699
97.31	0.1131077
97.315	0.1142867
97.32	0.1154395
97.325	0.116488
97.33	0.1175386
97.335	0.1185823
97.34	0.119804
97.345	0.1210478
97.35	0.1224802
97.355	0.1238746
97.36	0.1253544
97.365	0.1268328
97.37	0.1283534
97.375	0.12983
97.38	0.1312923
97.385	0.132433
97.39	0.1335823
97.395	0.1344331
97.4	0.135063
97.405	0.1358081
97.41	0.1365633
97.415	0.1371611
97.42	0.1376878
97.425	0.1382742
97.43	0.138872
97.435	0.1394518
97.44	0.140045
97.445	0.1403614
97.45	0.1406451
97.455	0.1408396
97.46	0.1410183
97.465	0.1412004
97.47	0.1413814
97.475	0.1415663
97.48	0.1416703
97.485	0.1418457
97.49	0.1419152
97.495	0.141993
97.5	0.1419472
97.505	0.1415734
97.51	0.1411812
97.515	0.1406414
97.52	0.1400889
97.525	0.1395499
97.53	0.1389632
97.535	0.1383875
97.54	0.1377947
97.545	0.1369427
97.55	0.136022
97.555	0.134715
97.56	0.1333879
97.565	0.1318805
97.57	0.130298
97.575	0.1290485
97.58	0.1281338
97.585	0.1272817
97.59	0.1269395
97.595	0.1267606
97.6	0.1268769
97.605	0.1272152
97.61	0.1275301
97.615	0.1278602
97.62	0.1282797
97.625	0.128755
97.63	0.1290553
97.635	0.1293277
97.64	0.1296546
97.645	0.129985
97.65	0.1304829
97.655	0.1310035
97.66	0.1316381
97.665	0.132387
97.67	0.1331413
97.675	0.133912
97.68	0.1346882
97.685	0.1355206
97.69	0.1362729
97.695	0.1370386
97.7	0.1377954
97.705	0.1385995
97.71	0.1393858
97.715	0.1402
97.72	0.1410808
97.725	0.1419791
97.73	0.1428754
97.735	0.143908
97.74	0.1450268
97.745	0.1461763
97.75	0.1474515
97.755	0.1487518
97.76	0.150212
97.765	0.1516764
97.77	0.1532241
97.775	0.1548329
97.78	0.1557336
97.785	0.1561298
97.79	0.1563551
97.795	0.1559526
97.8	0.1553509
97.805	0.1547472
97.81	0.1539705
97.815	0.1531535
97.82	0.1522753
97.825	0.1513884
97.83	0.1504566
97.835	0.1495897
97.84	0.1487295
97.845	0.1478574
97.85	0.1469188
97.855	0.1459004
97.86	0.1448664
97.865	0.143738
97.87	0.1423765
97.875	0.1409987
97.88	0.1395801
97.885	0.1381348
97.89	0.1366706
97.895	0.1352861
97.9	0.1339256
97.905	0.1325797
97.91	0.1312312
97.915	0.1300037
97.92	0.1287389
97.925	0.12736
97.93	0.1259385
97.935	0.124538
97.94	0.1229101
97.945	0.121122
97.95	0.119237
97.955	0.1172776
97.96	0.1153818
97.965	0.1134659
97.97	0.1115565
97.975	0.1095838
97.98	0.1074449
97.985	0.1058628
97.99	0.1045271
97.995	0.1033039
98	0.1025603
98.005	0.1018936
98.01	0.1012167
98.015	0.1006167
98.02	0.1000523
98.025	0.09953143
98.03	0.09903636
98.035	0.09863837
98.04	0.09828195
98.045	0.0979237
98.05	0.09758755
98.055	0.09734424
98.06	0.09729309
98.065	0.09724336
98.07	0.09718447
98.075	0.09729978
98.08	0.09741957
98.085	0.09753547
98.09	0.09767006
98.095	0.09789701
98.1	0.0979884
98.105	0.0980539
98.11	0.09807236
98.115	0.09809546
98.12	0.09816009
98.125	0.0983661
98.13	0.09862574
98.135	0.09896832
98.14	0.09923365
98.145	0.09967701
98.15	0.1001324
98.155	0.1006823
98.16	0.1012779
98.165	0.1016208
98.17	0.1019404
98.175	0.1021476
98.18	0.1023034
98.185	0.1025325
98.19	0.1026344
98.195	0.1028068
98.2	0.1029963
98.205	0.1031927
98.21	0.1035622
98.215	0.1039478
98.22	0.1044678
98.225	0.1050029
98.23	0.1056134
98.235	0.1063795
98.24	0.1070427
98.245	0.1079755
98.25	0.1089006
98.255	0.1096139
98.26	0.1102622
98.265	0.1106973
98.27	0.1111404
98.275	0.1116672
98.28	0.1121964
98.285	0.1127311
98.29	0.1132779
98.295	0.1138071
98.3	0.1141838
98.305	0.1146154
98.31	0.1150559
98.315	0.1155039
98.32	0.1159265
98.325	0.1162644
98.33	0.1163946
98.335	0.1165441
98.34	0.1165979
98.345	0.1166465
98.35	0.1166815
98.355	0.1166934
98.36	0.1165961
98.365	0.1164586
98.37	0.1164368
98.375	0.1164561
98.38	0.1165263
98.385	0.1166358
98.39	0.1167388
98.395	0.1169297
98.4	0.1171326
98.405	0.1173511
98.41	0.117555
98.415	0.11752
98.42	0.1175234
98.425	0.1173473
98.43	0.1171509
98.435	0.116825
98.44	0.1161722
98.445	0.1155169
98.45	0.1142779
98.455	0.1130288
98.46	0.1119118
98.465	0.1108212
98.47	0.1098526
98.475	0.1088896
98.48	0.1078357
98.485	0.1068519
98.49	0.1058808
98.495	0.104898
98.5	0.1039521
98.505	0.1031146
98.51	0.1022318
98.515	0.1013459
98.52	0.1005021
98.525	0.09967116
98.53	0.09890546
98.535	0.09821197
98.54	0.09754353
98.545	0.09695214
98.55	0.09649032
98.555	0.09598489
98.56	0.09555557
98.565	0.09524857
98.57	0.09495872
98.575	0.0946695
98.58	0.09430922
98.585	0.09403007
98.59	0.09378869
98.595	0.09352656
98.6	0.0932232
98.605	0.09289472
98.61	0.09252589
98.615	0.09220083
98.62	0.0920348
98.625	0.0917427
98.63	0.09156602
98.635	0.09140356
98.64	0.09136894
98.645	0.09151968
98.65	0.09170899
98.655	0.09231691
98.66	0.09315057
98.665	0.09396604
98.67	0.09478975
98.675	0.09557401
98.68	0.09635539
98.685	0.09727269
98.69	0.09813056
98.695	0.09890836
98.7	0.09968717
98.705	0.1004069
98.71	0.1010535
98.715	0.1017616
98.72	0.1024453
98.725	0.1030125
98.73	0.1035743
98.735	0.1041784
98.74	0.1047588
98.745	0.1053351
98.75	0.1058483
98.755	0.1061903
98.76	0.1064958
98.765	0.106743
98.77	0.1069126
98.775	0.1070879
98.78	0.1072408
98.785	0.1074149
98.79	0.1074468
98.795	0.1075119
98.8	0.1075932
98.805	0.1077291
98.81	0.1078856
98.815	0.1080564
98.82	0.1081804
98.825	0.108295
98.83	0.1084212
98.835	0.1085483
98.84	0.1086822
98.845	0.1088249
98.85	0.108961
98.855	0.1091265
98.86	0.1091952
98.865	0.1089055
98.87	0.10882
98.875	0.1087681
98.88	0.1088492
98.885	0.1089309
98.89	0.1088326
98.895	0.1085757
98.9	0.1084665
98.905	0.1084563
98.91	0.1084324
98.915	0.1084455
98.92	0.108422
98.925	0.1084046
98.93	0.1084458
98.935	0.1085422
98.94	0.1084876
98.945	0.1084884
98.95	0.1084911
98.955	0.108562
98.96	0.1086955
98.965	0.1089555
98.97	0.1092869
98.975	0.1096295
98.98	0.1099822
98.985	0.1103494
98.99	0.1107218
98.995	0.1113769
99	0.111873
99.005	0.1124362
99.01	0.1129125
99.015	0.1133565
99.02	0.1138208
99.025	0.1142918
99.03	0.1147698
99.035	0.1152813
99.04	0.1157912
99.045	0.1162865
99.05	0.1166492
99.055	0.1170496
99.06	0.1174537
99.065	0.1179498
99.07	0.1185721
99.075	0.1188319
99.08	0.1189899
99.085	0.1189106
99.09	0.1187369
99.095	0.118665
99.1	0.1187064
99.105	0.1185418
99.11	0.1181977
99.115	0.1178899
99.12	0.1175763
99.125	0.1172304
99.13	0.1168928
99.135	0.116615
99.14	0.1162338
99.145	0.1160402
99.15	0.115844
99.155	0.1156033
99.16	0.1152791
99.165	0.1150719
99.17	0.1147082
99.175	0.1142644
99.18	0.1138828
99.185	0.1134806
99.19	0.1131262
99.195	0.1128268
99.2	0.1122124
99.205	0.1117104
99.21	0.1112213
99.215	0.1107775
99.22	0.1103828
99.225	0.1100148
99.23	0.1096677
99.235	0.1093151
99.24	0.1090414
99.245	0.1087681
99.25	0.108494
99.255	0.1083708
99.26	0.1082494
99.265	0.1081139
99.27	0.1079179
99.275	0.1077322
99.28	0.1077369
99.285	0.1078114
99.29	0.1079796
99.295	0.1082825
99.3	0.1085442
99.305	0.1087973
99.31	0.1091627
99.315	0.1096801
99.32	0.1101664
99.325	0.1106595
99.33	0.1111989
99.335	0.1117425
99.34	0.1121629
99.345	0.1126375
99.35	0.1128881
99.355	0.1131053
99.36	0.1133431
99.365	0.1136784
99.37	0.113802
99.375	0.1140354
99.38	0.1143107
99.385	0.1144924
99.39	0.1146767
99.395	0.1147639
99.4	0.1147576
99.405	0.1147972
99.41	0.1147801
99.415	0.114528
99.42	0.1141838
99.425	0.1137865
99.43	0.1132731
99.435	0.112792
99.44	0.1123084
99.445	0.1116913
99.45	0.111062
99.455	0.1104341
99.46	0.1097845
99.465	0.1090665
99.47	0.1084767
99.475	0.1078929
99.48	0.1075461
99.485	0.1072657
99.49	0.1069791
99.495	0.1067159
99.5	0.1063352
99.505	0.1059868
99.51	0.1056354
99.515	0.1054406
99.52	0.1051211
99.525	0.1048153
99.53	0.1044764
99.535	0.1042615
99.54	0.1040342
99.545	0.1038954
99.55	0.10379
99.555	0.1038103
99.56	0.1038554
99.565	0.1039237
99.57	0.1039576
99.575	0.1042079
99.58	0.1045608
99.585	0.1049901
99.59	0.1054658
99.595	0.1059444
99.6	0.1066134
99.605	0.1073191
99.61	0.1080306
99.615	0.1087779
99.62	0.109678
99.625	0.1107298
99.63	0.111957
99.635	0.1132539
99.64	0.1145598
99.645	0.1158545
99.65	0.1171707
99.655	0.1184783
99.66	0.1198604
99.665	0.121091
99.67	0.1223735
99.675	0.1232948
99.68	0.1242515
99.685	0.124792
99.69	0.1252225
99.695	0.1257848
99.7	0.1263582
99.705	0.1270066
99.71	0.1276187
99.715	0.1282417
99.72	0.1286068
99.725	0.128996
99.73	0.1293862
99.735	0.1297822
99.74	0.1299426
99.745	0.130153
99.75	0.1303328
99.755	0.1304562
99.76	0.1306163
99.765	0.1307764
99.77	0.1309196
99.775	0.1309845
99.78	0.1309323
99.785	0.1306374
99.79	0.1302199
99.795	0.1298719
99.8	0.1296227
99.805	0.1291452
99.81	0.1287223
99.815	0.1283617
99.82	0.1280331
99.825	0.1279597
99.83	0.1277586
99.835	0.1274426
99.84	0.1271722
99.845	0.1267229
99.85	0.1263713
99.855	0.1260476
99.86	0.1257717
99.865	0.1253285
99.87	0.124978
99.875	0.1246861
99.88	0.1246151
99.885	0.1245951
99.89	0.1247842
99.895	0.1250325
99.9	0.1250064
99.905	0.1249659
99.91	0.1248803
99.915	0.1248479
99.92	0.1248295
99.925	0.1249375
99.93	0.1250831
99.935	0.1252444
99.94	0.1254642
99.945	0.1258101
99.95	0.1260529
99.955	0.1263176
99.96	0.1266077
99.965	0.1268768
99.97	0.1271472
99.975	0.1276381
99.98	0.128188
99.985	0.1288785
99.99	0.1296906
99.995	0.130592
100	0.1313941
100.005	0.1320023
100.01	0.1327189
100.015	0.1333071
100.02	0.1338344
100.025	0.1342909
100.03	0.134277
100.035	0.1343049
100.04	0.1341304
100.045	0.1339467
100.05	0.1338797
100.055	0.1336207
100.06	0.1333711
100.065	0.1330554
100.07	0.1328299
100.075	0.1326602
100.08	0.1323214
100.085	0.1319623
100.09	0.1313567
100.095	0.1307615
100.1	0.1301629
100.105	0.1297022
100.11	0.1292402
100.115	0.1288551
100.12	0.1284739
100.125	0.1280981
100.13	0.1277644
100.135	0.1274845
100.14	0.1271696
100.145	0.1268105
100.15	0.1264577
100.155	0.1261492
100.16	0.1258622
100.165	0.1255749
100.17	0.1253036
100.175	0.1250281
100.18	0.1243261
100.185	0.1236337
100.19	0.1226563
100.195	0.1216756
100.2	0.1206133
100.205	0.1195218
100.21	0.1185183
100.215	0.1175385
100.22	0.1167084
100.225	0.1159906
100.23	0.1153081
100.235	0.1148973
100.24	0.1145107
100.245	0.1144423
100.25	0.1141759
100.255	0.1138972
100.26	0.1137494
100.265	0.1135294
100.27	0.1132993
100.275	0.1130334
100.28	0.1127879
100.285	0.1127259
100.29	0.1127141
100.295	0.1130308
100.3	0.1136509
100.305	0.1143348
100.31	0.1150064
100.315	0.1158168
100.32	0.1165785
100.325	0.1172771
100.33	0.1179513
100.335	0.118539
100.34	0.1190565
100.345	0.1199001
100.35	0.1207123
100.355	0.1215481
100.36	0.1223858
100.365	0.1231622
100.37	0.1239357
100.375	0.1245616
100.38	0.1252268
100.385	0.1260854
100.39	0.1269162
100.395	0.1279553
100.4	0.129078
100.405	0.130222
100.41	0.1314105
100.415	0.1326516
100.42	0.1338175
100.425	0.1349688
100.43	0.1359743
100.435	0.1370017
100.44	0.138069
100.445	0.1391281
100.45	0.1401451
100.455	0.1413124
100.46	0.1425193
100.465	0.1437283
100.47	0.1449551
100.475	0.1462137
100.48	0.1474932
100.485	0.1485807
100.49	0.1495173
100.495	0.1504273
100.5	0.1511721
100.505	0.1514287
100.51	0.1516968
100.515	0.1519763
100.52	0.1520821
100.525	0.152123
100.53	0.1521385
100.535	0.1521216
100.54	0.1521359
100.545	0.1520743
100.55	0.1515234
100.555	0.1509911
100.56	0.1504004
100.565	0.1498237
100.57	0.1492448
100.575	0.1486755
100.58	0.1481882
100.585	0.1476308
100.59	0.1470838
100.595	0.1465488
100.6	0.1459232
100.605	0.1451396
100.61	0.1443651
100.615	0.1435659
100.62	0.1426491
100.625	0.1417599
100.63	0.1407092
100.635	0.1397267
100.64	0.1386715
100.645	0.1374562
100.65	0.1362318
100.655	0.1348478
100.66	0.1334718
100.665	0.1320483
100.67	0.1305398
100.675	0.129027
100.68	0.1274663
100.685	0.1258485
100.69	0.1243551
100.695	0.1230048
100.7	0.1215901
100.705	0.120175
100.71	0.1191088
100.715	0.1177931
100.72	0.1164433
100.725	0.1151403
100.73	0.1138703
100.735	0.1126405
100.74	0.1114231
100.745	0.1101899
100.75	0.1090409
100.755	0.1082224
100.76	0.1073379
100.765	0.106524
100.77	0.1057841
100.775	0.1050953
100.78	0.1043695
100.785	0.1036889
100.79	0.1031987
100.795	0.1027567
100.8	0.1023018
100.805	0.1019512
100.81	0.1017442
100.815	0.101543
100.82	0.1014015
100.825	0.1014663
100.83	0.1015732
100.835	0.1017696
100.84	0.1019777
100.845	0.1022284
100.85	0.1026067
100.855	0.1029337
100.86	0.103277
100.865	0.1033827
100.87	0.1033713
100.875	0.1034175
100.88	0.1034366
100.885	0.1035373
100.89	0.1036618
100.895	0.1037912
100.9	0.1037856
100.905	0.1039256
100.91	0.1041127
100.915	0.1042215
100.92	0.1045182
100.925	0.1048206
100.93	0.1052146
100.935	0.1056391
100.94	0.106097
100.945	0.1065899
100.95	0.1070818
100.955	0.1075888
100.96	0.1081151
100.965	0.1087009
100.97	0.1092018
100.975	0.1095412
100.98	0.1098114
100.985	0.1101374
100.99	0.1103711
100.995	0.1104967
101	0.110754
101.005	0.11106
101.01	0.1112937
101.015	0.111489
101.02	0.1117814
101.025	0.1120498
101.03	0.1120913
101.035	0.1120618
101.04	0.112099
101.045	0.1120848
101.05	0.112076
101.055	0.1121094
101.06	0.1121756
101.065	0.1123985
101.07	0.1127574
101.075	0.113301
101.08	0.1139595
101.085	0.1146381
101.09	0.115228
101.095	0.1159444
101.1	0.1166265
101.105	0.1175558
101.11	0.1183423
101.115	0.1191701
101.12	0.1199815
101.125	0.1207544
101.13	0.1217844
101.135	0.1226934
101.14	0.1236559
101.145	0.1245519
101.15	0.125476
101.155	0.1263943
101.16	0.1272983
101.165	0.1281712
101.17	0.129047
101.175	0.1299849
101.18	0.1309434
101.185	0.1320198
101.19	0.1330312
101.195	0.1341015
101.2	0.1350719
101.205	0.1357021
101.21	0.1362666
101.215	0.1368682
101.22	0.1374547
101.225	0.137932
101.23	0.138365
101.235	0.1390152
101.24	0.1396782
101.245	0.1403793
101.25	0.1411505
101.255	0.1419348
101.26	0.1426595
101.265	0.1433795
101.27	0.14402
101.275	0.1447146
101.28	0.1452541
101.285	0.1455896
101.29	0.1459426
101.295	0.1463609
101.3	0.1465905
101.305	0.1468595
101.31	0.1468177
101.315	0.1467758
101.32	0.1466731
101.325	0.1465897
101.33	0.1466013
101.335	0.1461714
101.34	0.1457913
101.345	0.1452648
101.35	0.1447611
101.355	0.1442246
101.36	0.1437198
101.365	0.1431971
101.37	0.1427723
101.375	0.1423387
101.38	0.1418817
101.385	0.141443
101.39	0.1408441
101.395	0.1402494
101.4	0.1396104
101.405	0.1389869
101.41	0.1385244
101.415	0.1380798
101.42	0.1376013
101.425	0.1371652
101.43	0.1366209
101.435	0.1361123
101.44	0.1353531
101.445	0.1346611
101.45	0.1338191
101.455	0.1328895
101.46	0.1319264
101.465	0.1310124
101.47	0.1301186
101.475	0.129216
101.48	0.1281788
101.485	0.127209
101.49	0.12636
101.495	0.1254485
101.5	0.12438
101.505	0.1234188
101.51	0.1224279
101.515	0.1216109
101.52	0.1208309
101.525	0.1200765
101.53	0.1193229
101.535	0.1183948
101.54	0.1177565
101.545	0.1171719
101.55	0.1166532
101.555	0.1161388
101.56	0.1154397
101.565	0.1146737
101.57	0.1139035
101.575	0.1128851
101.58	0.1118211
101.585	0.1106905
101.59	0.1095011
101.595	0.1083807
101.6	0.1072708
101.605	0.1061629
101.61	0.1051016
101.615	0.1040594
101.62	0.1030128
101.625	0.1019965
101.63	0.1009504
101.635	0.1000537
101.64	0.09909911
101.645	0.09829656
101.65	0.09744087
101.655	0.09667885
101.66	0.09591313
101.665	0.09513858
101.67	0.09424819
101.675	0.09329013
101.68	0.09235217
101.685	0.09151471
101.69	0.09067949
101.695	0.08995256
101.7	0.08925439
101.705	0.08870271
101.71	0.08813205
101.715	0.08752025
101.72	0.08716996
101.725	0.08685545
101.73	0.08655417
101.735	0.086313
101.74	0.08620296
101.745	0.08605691
101.75	0.08576234
101.755	0.0855168
101.76	0.08539831
101.765	0.08548423
101.77	0.08562773
101.775	0.08580414
101.78	0.08620503
101.785	0.08667298
101.79	0.08721746
101.795	0.08781981
101.8	0.0884378
101.805	0.08907462
101.81	0.08974264
101.815	0.09042672
101.82	0.09109337
101.825	0.09174989
101.83	0.09238212
101.835	0.0930139
101.84	0.09374845
101.845	0.09467686
101.85	0.09562526
101.855	0.09639917
101.86	0.0971703
101.865	0.09797182
101.87	0.09877935
101.875	0.09965479
101.88	0.1005356
101.885	0.10148
101.89	0.1025424
101.895	0.1035992
101.9	0.104432
101.905	0.1053584
101.91	0.1062344
101.915	0.1070796
101.92	0.1079175
101.925	0.1083402
101.93	0.1087122
101.935	0.1091245
101.94	0.1094354
101.945	0.1096717
101.95	0.1099135
101.955	0.1102382
101.96	0.1105651
101.965	0.1106854
101.97	0.1108478
101.975	0.1110224
101.98	0.1112
101.985	0.1113046
101.99	0.1113641
101.995	0.1113979
102	0.111447
102.005	0.1114856
102.01	0.1115369
102.015	0.1115426
102.02	0.1115169
102.025	0.1114832
102.03	0.1114738
102.035	0.1114446
102.04	0.1113348
102.045	0.1111283
102.05	0.1106343
102.055	0.1101129
102.06	0.1097226
102.065	0.1093405
102.07	0.1089993
102.075	0.1086798
102.08	0.1083412
102.085	0.1080394
102.09	0.1076474
102.095	0.1069603
102.1	0.1062646
102.105	0.1056584
102.11	0.1049471
102.115	0.1042632
102.12	0.10355
102.125	0.1028432
102.13	0.1023633
102.135	0.1019125
102.14	0.1014931
102.145	0.1011282
102.15	0.1009479
102.155	0.1007529
102.16	0.100493
102.165	0.1002095
102.17	0.1000253
102.175	0.099769
102.18	0.09941217
102.185	0.09906955
102.19	0.09873034
102.195	0.09838741
102.2	0.09805961
102.205	0.09767334
102.21	0.09728642
102.215	0.0967963
102.22	0.09633118
102.225	0.09596461
102.23	0.09560799
102.235	0.09526186
102.24	0.09494467
102.245	0.09470112
102.25	0.09437988
102.255	0.09433812
102.26	0.09436381
102.265	0.09452466
102.27	0.09476831
102.275	0.09493518
102.28	0.09505045
102.285	0.09517273
102.29	0.09523026
102.295	0.0953257
102.3	0.09564705
102.305	0.09597428
102.31	0.09631763
102.315	0.09689267
102.32	0.09745904
102.325	0.09834342
102.33	0.0992314
102.335	0.1000701
102.34	0.1009669
102.345	0.1017048
102.35	0.1024577
102.355	0.102976
102.36	0.1035087
102.365	0.1040762
102.37	0.1046641
102.375	0.105321
102.38	0.1059934
102.385	0.1066848
102.39	0.1072919
102.395	0.1079182
102.4	0.1085941
102.405	0.109285
102.41	0.1100708
102.415	0.1109099
102.42	0.1118938
102.425	0.1128716
102.43	0.1137251
102.435	0.1145811
102.44	0.1153538
102.445	0.1161437
102.45	0.1169283
102.455	0.1177665
102.46	0.1186236
102.465	0.1193431
102.47	0.1198025
102.475	0.1201899
102.48	0.1207143
102.485	0.1212616
102.49	0.1217981
102.495	0.1223623
102.5	0.122887
102.505	0.1233457
102.51	0.1238034
102.515	0.1243392
102.52	0.1244685
102.525	0.1246615
102.53	0.1244217
102.535	0.1241805
102.54	0.1239409
102.545	0.1236875
102.55	0.1236077
102.555	0.1235974
102.56	0.1236472
102.565	0.1236969
102.57	0.1237391
102.575	0.1238348
102.58	0.1238675
102.585	0.1239109
102.59	0.1239887
102.595	0.1240978
102.6	0.1242109
102.605	0.1242672
102.61	0.1242801
102.615	0.1241785
102.62	0.1239836
102.625	0.123613
102.63	0.1232699
102.635	0.122969
102.64	0.1226583
102.645	0.1224244
102.65	0.122137
102.655	0.1219427
102.66	0.1217652
102.665	0.1212933
102.67	0.1209827
102.675	0.1209058
102.68	0.1207599
102.685	0.1204169
102.69	0.1200865
102.695	0.1197952
102.7	0.1194941
102.705	0.1192353
102.71	0.1189854
102.715	0.1187193
102.72	0.1182882
102.725	0.1180838
102.73	0.1177773
102.735	0.1176952
102.74	0.1176209
102.745	0.1175511
102.75	0.1173337
102.755	0.1168144
102.76	0.1160948
102.765	0.1154226
102.77	0.11477
102.775	0.1141289
102.78	0.1133983
102.785	0.1126508
102.79	0.1119457
102.795	0.1112257
102.8	0.1105153
102.805	0.1097804
102.81	0.109075
102.815	0.1084411
102.82	0.1078622
102.825	0.1075168
102.83	0.1072834
102.835	0.1069842
102.84	0.1066646
102.845	0.1063645
102.85	0.1060085
102.855	0.1056807
102.86	0.1051477
102.865	0.1046007
102.87	0.1042858
102.875	0.1037768
102.88	0.1029893
102.885	0.1022757
102.89	0.1016021
102.895	0.1009051
102.9	0.1001193
102.905	0.09932894
102.91	0.09850882
102.915	0.0977353
102.92	0.09698138
102.925	0.0963492
102.93	0.09575425
102.935	0.09518037
102.94	0.09460964
102.945	0.09401645
102.95	0.09343587
102.955	0.09311267
102.96	0.09301358
102.965	0.09309051
102.97	0.09317668
102.975	0.09322755
102.98	0.0933374
102.985	0.09350581
102.99	0.09370072
102.995	0.0938409
103	0.09398266
103.005	0.09411943
103.01	0.09440915
103.015	0.09472387
103.02	0.09497428
103.025	0.09542707
103.03	0.09546366
103.035	0.09576107
103.04	0.09608761
103.045	0.09653043
103.05	0.09692483
103.055	0.09734336
103.06	0.09777759
103.065	0.09832129
103.07	0.09892888
103.075	0.09949887
103.08	0.1001755
103.085	0.1012038
103.09	0.1022235
103.095	0.1033353
103.1	0.1044219
103.105	0.1055525
103.11	0.1069343
103.115	0.1083154
103.12	0.1098177
103.125	0.1112917
103.13	0.1126662
103.135	0.1140491
103.14	0.1155472
103.145	0.1170236
103.15	0.1185315
103.155	0.120017
103.16	0.1212772
103.165	0.1225855
103.17	0.123821
103.175	0.1250038
103.18	0.1261674
103.185	0.1272073
103.19	0.1281413
103.195	0.1290543
103.2	0.1299065
103.205	0.1307721
103.21	0.1316336
103.215	0.1322926
103.22	0.1329733
103.225	0.1336326
103.23	0.1340124
103.235	0.1345374
103.24	0.1347271
103.245	0.1349315
103.25	0.1350014
103.255	0.1350816
103.26	0.1351437
103.265	0.1351922
103.27	0.1352292
103.275	0.135178
103.28	0.1351601
103.285	0.1351347
103.29	0.1348294
103.295	0.1345401
103.3	0.1341658
103.305	0.1338172
103.31	0.1334449
103.315	0.1326627
103.32	0.1318732
103.325	0.1307946
103.33	0.1297104
103.335	0.1286604
103.34	0.1274952
103.345	0.12611
103.35	0.1248337
103.355	0.1234633
103.36	0.1220894
103.365	0.120796
103.37	0.1193551
103.375	0.1179122
103.38	0.1164162
103.385	0.114915
103.39	0.113469
103.395	0.1120717
103.4	0.110675
103.405	0.1093463
103.41	0.1079644
103.415	0.1065934
103.42	0.1053302
103.425	0.1039083
103.43	0.1025493
103.435	0.1013657
103.44	0.1002372
103.445	0.09920749
103.45	0.09817293
103.455	0.09722207
103.46	0.09630909
103.465	0.09542188
103.47	0.09451883
103.475	0.09370191
103.48	0.0930518
103.485	0.09243794
103.49	0.09189398
103.495	0.09152389
103.5	0.09111018
103.505	0.09085619
103.51	0.0907237
103.515	0.09074486
103.52	0.09104318
103.525	0.09139229
103.53	0.09189167
103.535	0.09235057
103.54	0.09285905
103.545	0.09351024
103.55	0.09424538
103.555	0.09479458
103.56	0.09539373
103.565	0.09598789
103.57	0.096651
103.575	0.09739605
103.58	0.09827886
103.585	0.09922865
103.59	0.1001661
103.595	0.1011297
103.6	0.1021424
103.605	0.1031675
103.61	0.104178
103.615	0.1052312
103.62	0.1062429
103.625	0.1072515
103.63	0.1083345
103.635	0.1093118
103.64	0.110251
103.645	0.1110617
103.65	0.1119655
103.655	0.1128123
103.66	0.113751
103.665	0.1146251
103.67	0.1154669
103.675	0.116312
103.68	0.1170084
103.685	0.1175081
103.69	0.1178733
103.695	0.1181163
103.7	0.1184625
103.705	0.1188427
103.71	0.1192336
103.715	0.1193558
103.72	0.1193339
103.725	0.1194192
103.73	0.1194361
103.735	0.1195794
103.74	0.1197447
103.745	0.1198327
103.75	0.1199099
103.755	0.1200723
103.76	0.1201284
103.765	0.1201835
103.77	0.1202373
103.775	0.1201965
103.78	0.1201635
103.785	0.1199408
103.79	0.119725
103.795	0.1195215
103.8	0.119277
103.805	0.1189722
103.81	0.1186342
103.815	0.1182721
103.82	0.117946
103.825	0.1175974
103.83	0.1172576
103.835	0.1169323
103.84	0.1166377
103.845	0.1163769
103.85	0.116172
103.855	0.1158904
103.86	0.1156302
103.865	0.1152014
103.87	0.1147904
103.875	0.1143924
103.88	0.1139949
103.885	0.1136633
103.89	0.1134372
103.895	0.1132915
103.9	0.1131962
103.905	0.1128938
103.91	0.1127314
103.915	0.1124568
103.92	0.1124174
103.925	0.1123632
103.93	0.1121121
103.935	0.1118716
103.94	0.1114436
103.945	0.1110212
103.95	0.1106392
103.955	0.1101551
103.96	0.1095654
103.965	0.1091016
103.97	0.108668
103.975	0.10823
103.98	0.1078618
103.985	0.1076304
103.99	0.1076253
103.995	0.1076497
104	0.1077676
104.005	0.1078733
104.01	0.1079981
104.015	0.1081517
104.02	0.1082668
104.025	0.108265
104.03	0.1083165
104.035	0.1083763
104.04	0.1084229
104.045	0.1084789
104.05	0.1084957
104.055	0.1085239
104.06	0.1086309
104.065	0.1087654
104.07	0.1089498
104.075	0.1091406
104.08	0.1093327
104.085	0.1095294
104.09	0.1097366
104.095	0.1099448
104.1	0.1101722
104.105	0.1104174
104.11	0.1107649
104.115	0.1107513
104.12	0.1106084
104.125	0.1103204
104.13	0.1100982
104.135	0.1099768
104.14	0.1098697
104.145	0.1098552
104.15	0.1098257
104.155	0.1098557
104.16	0.1099578
104.165	0.1101259
104.17	0.1102945
104.175	0.1104487
104.18	0.1106571
104.185	0.1108164
104.19	0.1107157
104.195	0.1103466
104.2	0.1098095
104.205	0.1090815
104.21	0.1084086
104.215	0.1077364
104.22	0.107038
104.225	0.1063832
104.23	0.105692
104.235	0.1050266
104.24	0.1042772
104.245	0.1035583
104.25	0.1028379
104.255	0.1021745
104.26	0.1015216
104.265	0.1008958
104.27	0.1002277
104.275	0.09958186
104.28	0.09894105
104.285	0.09830733
104.29	0.09765261
104.295	0.09699626
104.3	0.09633153
104.305	0.09561253
104.31	0.09488909
104.315	0.09416791
104.32	0.09368263
104.325	0.09340253
104.33	0.09320384
104.335	0.09298594
104.34	0.09277112
104.345	0.09261898
104.35	0.09246815
104.355	0.09242636
104.36	0.0922359
104.365	0.09205326
104.37	0.09182155
104.375	0.09161176
104.38	0.09132495
104.385	0.09096829
104.39	0.09064496
104.395	0.09047425
104.4	0.09044604
104.405	0.09055335
104.41	0.09072247
104.415	0.0907796
104.42	0.09083663
104.425	0.09088763
104.43	0.09094011
104.435	0.09107373
104.44	0.091045
104.445	0.09108393
104.45	0.0910297
104.455	0.09097881
104.46	0.09095266
104.465	0.09090145
104.47	0.09068046
104.475	0.09047664
104.48	0.09030906
104.485	0.09011913
104.49	0.08992771
104.495	0.08975733
104.5	0.08957351
104.505	0.08942006
104.51	0.08929335
104.515	0.08922296
104.52	0.08917394
104.525	0.08912938
104.53	0.08906766
104.535	0.08901467
104.54	0.08903313
104.545	0.08902302
104.55	0.08894585
104.555	0.08887028
104.56	0.08859259
104.565	0.08839369
104.57	0.0881498
104.575	0.08793532
104.58	0.08773051
104.585	0.087584
104.59	0.08730225
104.595	0.08703112
104.6	0.08670259
104.605	0.0863949
104.61	0.08608244
104.615	0.08580671
104.62	0.08558556
104.625	0.08536264
104.63	0.08530937
104.635	0.08548146
104.64	0.08576831
104.645	0.08619662
104.65	0.0866211
104.655	0.08707977
104.66	0.08763763
104.665	0.08799558
104.67	0.0883637
104.675	0.08881526
104.68	0.08932931
104.685	0.08977751
104.69	0.0902367
104.695	0.09065435
104.7	0.09104721
104.705	0.09146444
104.71	0.09183064
104.715	0.09220088
104.72	0.0924434
104.725	0.09268041
104.73	0.09287648
104.735	0.09307735
104.74	0.09327974
104.745	0.09337163
104.75	0.09347529
104.755	0.09354275
104.76	0.09360744
104.765	0.0937599
104.77	0.09393175
104.775	0.09416168
104.78	0.09439185
104.785	0.0945686
104.79	0.09473591
104.795	0.09501983
104.8	0.09528074
104.805	0.09556932
104.81	0.09590216
104.815	0.09625996
104.82	0.09666325
104.825	0.09711694
104.83	0.09755886
104.835	0.09774898
104.84	0.09751995
104.845	0.09712272
104.85	0.09664646
104.855	0.09616819
104.86	0.09568292
104.865	0.09502063
104.87	0.09448445
104.875	0.09387432
104.88	0.09327701
104.885	0.09254707
104.89	0.09183044
104.895	0.09110579
104.9	0.09040043
104.905	0.08969972
104.91	0.08894993
104.915	0.08827111
104.92	0.08759919
104.925	0.08711327
104.93	0.08658175
104.935	0.08625341
104.94	0.08584011
104.945	0.08554864
104.95	0.08530864
104.955	0.08507513
104.96	0.08495722
104.965	0.08485845
104.97	0.0848285
104.975	0.08475834
104.98	0.08468982
104.985	0.08464533
104.99	0.08464482
104.995	0.08465449
105	0.08470114
105.005	0.08476323
105.01	0.08486391
105.015	0.08490305
105.02	0.08492119
105.025	0.084848
105.03	0.08466934
105.035	0.08453376
105.04	0.08451275
105.045	0.08473827
105.05	0.08514249
105.055	0.085594
105.06	0.08615405
105.065	0.08672628
105.07	0.087457
105.075	0.08816911
105.08	0.08906872
105.085	0.09016148
105.09	0.09132139
105.095	0.09265965
105.1	0.09398058
105.105	0.0952931
105.11	0.09660734
105.115	0.09791848
105.12	0.09910828
105.125	0.1002529
105.13	0.1011792
105.135	0.1021127
105.14	0.1027539
105.145	0.1034593
105.15	0.1039328
105.155	0.1044302
105.16	0.1049246
105.165	0.1053663
105.17	0.1058891
105.175	0.1063523
105.18	0.1070507
105.185	0.1076544
105.19	0.1082917
105.195	0.1088748
105.2	0.1094531
105.205	0.1100552
105.21	0.1107276
105.215	0.1114618
105.22	0.1122776
105.225	0.1130595
105.23	0.1138706
105.235	0.1146998
105.24	0.1155245
105.245	0.1163654
105.25	0.1171915
105.255	0.1178481
105.26	0.1185108
105.265	0.1190681
105.27	0.1196301
105.275	0.1201727
105.28	0.1206969
105.285	0.1210269
105.29	0.1210512
105.295	0.1210628
105.3	0.1207899
105.305	0.1205179
105.31	0.1202344
105.315	0.1199301
105.32	0.1196324
105.325	0.1193902
105.33	0.1191619
105.335	0.1190213
105.34	0.118908
105.345	0.118914
105.35	0.1188945
105.355	0.1190178
105.36	0.119116
105.365	0.1192744
105.37	0.1195005
105.375	0.119584
105.38	0.1196874
105.385	0.1195479
105.39	0.1194562
105.395	0.1192457
105.4	0.1190662
105.405	0.1189043
105.41	0.1186241
105.415	0.1181958
105.42	0.1175884
105.425	0.1168197
105.43	0.1161213
105.435	0.1154144
105.44	0.1147332
105.445	0.113985
105.45	0.1132234
105.455	0.1124617
105.46	0.1117906
105.465	0.1111368
105.47	0.1104562
105.475	0.1097678
105.48	0.1089305
105.485	0.1081014
105.49	0.1074243
105.495	0.1069733
105.5	0.1065631
105.505	0.1063161
105.51	0.1061253
105.515	0.1059351
105.52	0.1057688
105.525	0.1055996
105.53	0.1054103
105.535	0.1052271
105.54	0.1050512
105.545	0.1048327
105.55	0.1045843
105.555	0.1043869
105.56	0.1041122
105.565	0.1038793
105.57	0.1035088
105.575	0.1030119
105.58	0.1025292
105.585	0.102065
105.59	0.1015209
105.595	0.1009858
105.6	0.100557
105.605	0.1001334
105.61	0.09967485
105.615	0.09945148
105.62	0.09932413
105.625	0.09935034
105.63	0.09949409
105.635	0.09953159
105.64	0.09955808
105.645	0.09961343
105.65	0.09972424
105.655	0.09983312
105.66	0.09994726
105.665	0.1000601
105.67	0.1000771
105.675	0.1001012
105.68	0.1001109
105.685	0.1002305
105.69	0.1003624
105.695	0.1004475
105.7	0.1004322
105.705	0.1003293
105.71	0.1002247
105.715	0.09999966
105.72	0.09977592
105.725	0.09950358
105.73	0.09925731
105.735	0.09902888
105.74	0.09878963
105.745	0.09852519
105.75	0.09832733
105.755	0.09815628
105.76	0.09796079
105.765	0.09778199
105.77	0.09753127
105.775	0.09736676
105.78	0.09722305
105.785	0.09714309
105.79	0.09694071
105.795	0.09682305
105.8	0.0966954
105.805	0.09652389
105.81	0.09640698
105.815	0.09633393
105.82	0.09593484
105.825	0.09554933
105.83	0.0951367
105.835	0.09467562
105.84	0.09425901
105.845	0.09385578
105.85	0.09333551
105.855	0.09277692
105.86	0.09220537
105.865	0.09163036
105.87	0.09106873
105.875	0.09072256
105.88	0.09040663
105.885	0.09017067
105.89	0.08994428
105.895	0.08968365
105.9	0.08933851
105.905	0.08901693
105.91	0.08874574
105.915	0.08847522
105.92	0.08826144
105.925	0.08805726
105.93	0.08788655
105.935	0.08768242
105.94	0.08744712
105.945	0.08720928
105.95	0.08700466
105.955	0.08668619
105.96	0.08637096
105.965	0.08598171
105.97	0.08564686
105.975	0.0853951
105.98	0.08510994
105.985	0.08476354
105.99	0.08439643
105.995	0.08409831
106	0.08384957
106.005	0.08360659
106.01	0.08349954
106.015	0.08328241
106.02	0.08308898
106.025	0.08309689
106.03	0.08305594
106.035	0.0829354
106.04	0.08286812
106.045	0.08278048
106.05	0.08271679
106.055	0.08272917
106.06	0.08276959
106.065	0.08286603
106.07	0.08296112
106.075	0.08316745
106.08	0.08311786
106.085	0.08310386
106.09	0.08294251
106.095	0.08293692
106.1	0.08295077
106.105	0.08321727
106.11	0.08356128
106.115	0.08392452
106.12	0.08439161
106.125	0.08487838
106.13	0.0853629
106.135	0.08585695
106.14	0.08641261
106.145	0.08698382
106.15	0.08755489
106.155	0.08808776
106.16	0.08867527
106.165	0.08924772
106.17	0.08989438
106.175	0.09057007
106.18	0.09112676
106.185	0.09176914
106.19	0.09247984
106.195	0.09318619
106.2	0.09402652
106.205	0.09490391
106.21	0.09579059
106.215	0.09644763
106.22	0.09710487
106.225	0.0976183
106.23	0.09822523
106.235	0.09891437
106.24	0.09970309
106.245	0.1004755
106.25	0.1013196
106.255	0.1022709
106.26	0.1033208
106.265	0.104477
106.27	0.1055806
106.275	0.1066828
106.28	0.1076766
106.285	0.1086621
106.29	0.109664
106.295	0.1107219
106.3	0.1115116
106.305	0.1122953
106.31	0.1128172
106.315	0.1133837
106.32	0.1139405
106.325	0.1144743
106.33	0.1150164
106.335	0.1155436
106.34	0.1160626
106.345	0.1164682
106.35	0.1169089
106.355	0.1173536
106.36	0.1178592
106.365	0.1183936
106.37	0.1189755
106.375	0.1196445
106.38	0.1201906
106.385	0.120862
106.39	0.1214465
106.395	0.1220786
106.4	0.1227175
106.405	0.1232136
106.41	0.1236695
106.415	0.1241259
106.42	0.1247019
106.425	0.1253231
106.43	0.1260275
106.435	0.1266908
106.44	0.1272494
106.445	0.1278357
106.45	0.1284042
106.455	0.1288768
106.46	0.1291284
106.465	0.1292111
106.47	0.1291269
106.475	0.1290273
106.48	0.1289154
106.485	0.1287125
106.49	0.1285623
106.495	0.1283232
106.5	0.1280657
106.505	0.1279389
106.51	0.1278131
106.515	0.1278345
106.52	0.1277155
106.525	0.1275945
106.53	0.1273789
106.535	0.1271112
106.54	0.1268537
106.545	0.1265862
106.55	0.1263794	#1 kiana LF 2 
106.555	0.1261656
106.56	0.1259472
106.565	0.1256721
106.57	0.1253385
106.575	0.1249181
106.58	0.1242775
106.585	0.1236915
106.59	0.1229698
106.595	0.1222412
106.6	0.1213857
106.605	0.1205473
106.61	0.1197132
106.615	0.1188755
106.62	0.1180058
106.625	0.1170619
106.63	0.116079
106.635	0.1150481
106.64	0.1138161
106.645	0.1126328
106.65	0.111262
106.655	0.1098797
106.66	0.1085437
106.665	0.1073205
106.67	0.1061768
106.675	0.1050939
106.68	0.1040546
106.685	0.1030376
106.69	0.1021382
106.695	0.1012376
106.7	0.1003947
106.705	0.09955362
106.71	0.09864233
106.715	0.09772491
106.72	0.09670848
106.725	0.095737
106.73	0.09473234
106.735	0.09366303
106.74	0.09267439
106.745	0.09165702
106.75	0.09062801
106.755	0.08968799
106.76	0.08869217
106.765	0.08774575
106.77	0.0868455
106.775	0.08597842
106.78	0.08530707
106.785	0.08478618
106.79	0.08430525
106.795	0.08395898
106.8	0.08367731
106.805	0.08360068
106.81	0.08343498
106.815	0.0833293
106.82	0.08328192
106.825	0.08322357
106.83	0.0832156
106.835	0.08318642
106.84	0.08318387
106.845	0.08337296
106.85	0.08354454
106.855	0.08382175
106.86	0.08411086
106.865	0.08443214
106.87	0.08484183
106.875	0.08545678
106.88	0.08633984
106.885	0.08714233
106.89	0.08788397
106.895	0.08858815
106.9	0.08929097
106.905	0.09001653
106.91	0.09074595
106.915	0.09152931
106.92	0.09241697
106.925	0.09333739
106.93	0.09431042
106.935	0.0952722
106.94	0.09640159
106.945	0.09742906
106.95	0.09847225
106.955	0.0995414
106.96	0.1004161
106.965	0.1013036
106.97	0.1020768
106.975	0.1027443
106.98	0.1034126
106.985	0.1038451
106.99	0.1042854
106.995	0.104696
107	0.1051171
107.005	0.1055079
107.01	0.1058706
107.015	0.1062676
107.02	0.1066977
107.025	0.1070513
107.03	0.1074253
107.035	0.1078007
107.04	0.1081972
107.045	0.1085964
107.05	0.1090067
107.055	0.1094194
107.06	0.1098804
107.065	0.1103354
107.07	0.1108136
107.075	0.1111532
107.08	0.1112509
107.085	0.1109422
107.09	0.1106598
107.095	0.1104166
107.1	0.1101874
107.105	0.1099667
107.11	0.1097127
107.115	0.1094814
107.12	0.1092312
107.125	0.1087943
107.13	0.1083829
107.135	0.1078735
107.14	0.1074128
107.145	0.1068137
107.15	0.1062707
107.155	0.105691
107.16	0.1050514
107.165	0.1045212
107.17	0.1038958
107.175	0.1033487
107.18	0.1029308
107.185	0.1025658
107.19	0.1023325
107.195	0.1021029
107.2	0.1018499
107.205	0.1014749
107.21	0.1011406
107.215	0.1006493
107.22	0.100175
107.225	0.09962863
107.23	0.09912113
107.235	0.09862392
107.24	0.09812367
107.245	0.09770948
107.25	0.09728657
107.255	0.09685312
107.26	0.09642659
107.265	0.09591907
107.27	0.09545236
107.275	0.09491517
107.28	0.09453046
107.285	0.09421851
107.29	0.09416702
107.295	0.09412708
107.3	0.09403451
107.305	0.09394385
107.31	0.09381808
107.315	0.09373477
107.32	0.0936448
107.325	0.09361884
107.33	0.09369333
107.335	0.09373936
107.34	0.09386185
107.345	0.09391009
107.35	0.09409397
107.355	0.09422783
107.36	0.09439469
107.365	0.09459852
107.37	0.09475421
107.375	0.09513051
107.38	0.09544314
107.385	0.09564776
107.39	0.09572407
107.395	0.09576764
107.4	0.09580355
107.405	0.09586498
107.41	0.09595993
107.415	0.09600012
107.42	0.09613105
107.425	0.09620874
107.43	0.09636695
107.435	0.09651615
107.44	0.09664588
107.445	0.09676224
107.45	0.09672336
107.455	0.09673109
107.46	0.09673033
107.465	0.09678587
107.47	0.09687106
107.475	0.09687373
107.48	0.09677769
107.485	0.09654298
107.49	0.09630165
107.495	0.0961773
107.5	0.09612351
107.505	0.09610027
107.51	0.09616158
107.515	0.09624414
107.52	0.09625437
107.525	0.09617126
107.53	0.09604284
107.535	0.0961522
107.54	0.09644547
107.545	0.09700788
107.55	0.09769878
107.555	0.09834479
107.56	0.09901071
107.565	0.09971246
107.57	0.1004782
107.575	0.1017029
107.58	0.1026787
107.585	0.103879
107.59	0.1050623
107.595	0.1063082
107.6	0.107572
107.605	0.1089266
107.61	0.1102824
107.615	0.1116478
107.62	0.1130316
107.625	0.1144062
107.63	0.1158165
107.635	0.1172215
107.64	0.1186107
107.645	0.119977
107.65	0.1213357
107.655	0.1229251
107.66	0.1244315
107.665	0.1259205
107.67	0.1274618
107.675	0.1290603
107.68	0.1309054
107.685	0.1327696
107.69	0.1346605
107.695	0.1365463
107.7	0.1382218
107.705	0.1397603
107.71	0.1412628
107.715	0.1426251
107.72	0.1439923
107.725	0.1454001
107.73	0.1468458
107.735	0.1483826
107.74	0.1495969
107.745	0.1507845
107.75	0.1516434
107.755	0.1523674
107.76	0.1530612
107.765	0.1539107
107.77	0.1547147
107.775	0.155758
107.78	0.1562145
107.785	0.1567584
107.79	0.1570276
107.795	0.1573269
107.8	0.157829
107.805	0.1583414
107.81	0.1588645
107.815	0.1593647
107.82	0.1598691
107.825	0.1604057
107.83	0.1609598
107.835	0.1614803
107.84	0.1619329
107.845	0.1624353
107.85	0.1629412
107.855	0.1634768
107.86	0.1637525
107.865	0.1640456
107.87	0.1643527
107.875	0.1645394
107.88	0.1646077
107.885	0.1643014
107.89	0.1640346
107.895	0.1638848
107.9	0.1642726
107.905	0.1647634
107.91	0.1654255
107.915	0.1661213
107.92	0.1669781
107.925	0.1679654
107.93	0.1689346
107.935	0.1698855
107.94	0.1706423
107.945	0.1716392
107.95	0.1727053
107.955	0.1738741
107.96	0.1750932
107.965	0.1763353
107.97	0.1773124
107.975	0.178262
107.98	0.1788885
107.985	0.1800812
107.99	0.1818694
107.995	0.1838106
108	0.1864559
108.005	0.1889638
108.01	0.1914194
108.015	0.1939827
108.02	0.19664
108.025	0.199293
108.03	0.202235
108.035	0.2051107
108.04	0.2082848
108.045	0.2114074
108.05	0.2147089
108.055	0.2179973
108.06	0.2211944
108.065	0.224492
108.07	0.22793
108.075	0.2313599
108.08	0.2348037
108.085	0.2383227
108.09	0.2419256
108.095	0.2455265
108.1	0.2492308
108.105	0.2526529
108.11	0.2571206
108.115	0.2617263
108.12	0.2669476
108.125	0.2719364
108.13	0.2767363
108.135	0.2814401
108.14	0.2860982
108.145	0.2907486
108.15	0.2955248
108.155	0.3000489
108.16	0.3047023
108.165	0.3092872
108.17	0.3138504
108.175	0.3185112
108.18	0.3231411
108.185	0.3281848
108.19	0.3328163
108.195	0.3370123
108.2	0.3411044
108.205	0.3444812
108.21	0.3476333
108.215	0.3508435
108.22	0.3538686
108.225	0.3569013
108.23	0.359959
108.235	0.3626181
108.24	0.3652814
108.245	0.3675536
108.25	0.3698329
108.255	0.3717847
108.26	0.373692
108.265	0.3759916
108.27	0.3781849
108.275	0.3804947
108.28	0.3828079
108.285	0.3850265
108.29	0.3872789
108.295	0.3897577
108.3	0.3922064
108.305	0.3943253
108.31	0.3960614
108.315	0.3963904
108.32	0.3962888
108.325	0.3952537
108.33	0.394263
108.335	0.3932158
108.34	0.3921736
108.345	0.3910877
108.35	0.3902426
108.355	0.3889593
108.36	0.3880948
108.365	0.3869398
108.37	0.3857919
108.375	0.3845404
108.38	0.3832123
108.385	0.3818492
108.39	0.3796592
108.395	0.3776295
108.4	0.3753867
108.405	0.3732086
108.41	0.3712434
108.415	0.3696099
108.42	0.3677928
108.425	0.3659045
108.43	0.3637937
108.435	0.3615457
108.44	0.3594268
108.445	0.3572664
108.45	0.3553274
108.455	0.3533797
108.46	0.3516891
108.465	0.350001
108.47	0.3474573
108.475	0.3449702
108.48	0.3418077
108.485	0.3384721
108.49	0.3352892
108.495	0.3317992
108.5	0.3277129
108.505	0.3234686
108.51	0.3193508
108.515	0.3157817
108.52	0.31306
108.525	0.3106856
108.53	0.308883
108.535	0.307064
108.54	0.3053149
108.545	0.3036385
108.55	0.3020027
108.555	0.2996828
108.56	0.2976605
108.565	0.2945819
108.57	0.2916578
108.575	0.288693
108.58	0.2857724
108.585	0.2827629
108.59	0.2797838
108.595	0.2777107
108.6	0.275745
108.605	0.2745815
108.61	0.2732582
108.615	0.2718417
108.62	0.2698857
108.625	0.268051
108.63	0.2663063
108.635	0.2646781
108.64	0.2632348
108.645	0.2617906
108.65	0.2604132
108.655	0.2590501
108.66	0.257721
108.665	0.2563591
108.67	0.2550404
108.675	0.2543091
108.68	0.2535268
108.685	0.2532798
108.69	0.2531447
108.695	0.2526671
108.7	0.2523986
108.705	0.2524492
108.71	0.2525843
108.715	0.2527295
108.72	0.2523187
108.725	0.2517957
108.73	0.2511824
108.735	0.250748
108.74	0.250503
108.745	0.2502706
108.75	0.2499107
108.755	0.2494957
108.76	0.2495206
108.765	0.2495271
108.77	0.2501955
108.775	0.2508636
108.78	0.251501
108.785	0.2521389
108.79	0.2527441
108.795	0.2532521
108.8	0.2529389
108.805	0.2522378
108.81	0.250417
108.815	0.2486632
108.82	0.2470459
108.825	0.2457011
108.83	0.2443247
108.835	0.2429878
108.84	0.2418587
108.845	0.2404238
108.85	0.2391843
108.855	0.2378094
108.86	0.2361975
108.865	0.2344409
108.87	0.2322872
108.875	0.230012
108.88	0.2276925
108.885	0.2253802
108.89	0.2230223
108.895	0.2206479
108.9	0.2184544
108.905	0.2162631
108.91	0.2141353
108.915	0.2120018
108.92	0.2098955
108.925	0.208073
108.93	0.2063276
108.935	0.2044745
108.94	0.2020685
108.945	0.1991716
108.95	0.1961416
108.955	0.1929744
108.96	0.1897868
108.965	0.1864554
108.97	0.1830788
108.975	0.1796383
108.98	0.1761303
108.985	0.1725861
108.99	0.1689666
108.995	0.1654002
109	0.1618151
109.005	0.1588839
109.01	0.1562334
109.015	0.1544695
109.02	0.1526934
109.025	0.1508527
109.03	0.1489412
109.035	0.1470333
109.04	0.1450871
109.045	0.142441
109.05	0.1400402
109.055	0.1370204
109.06	0.1340429
109.065	0.1312453
109.07	0.1285189
109.075	0.126263
109.08	0.1240658
109.085	0.1218383
109.09	0.1195714
109.095	0.1172935
109.1	0.1149815
109.105	0.1126167
109.11	0.1101293
109.115	0.10737
109.12	0.104533
109.125	0.1015092
109.13	0.09841561
109.135	0.09524306
109.14	0.0921901
109.145	0.08973209
109.15	0.08777034
109.155	0.08591214
109.16	0.08434962
109.165	0.08276319
109.17	0.08133911
109.175	0.07993001
109.18	0.07852372
109.185	0.07709895
109.19	0.07563009
109.195	0.07413347
109.2	0.07257448
109.205	0.07116678
109.21	0.06967251
109.215	0.06830267
109.22	0.06698708
109.225	0.06567758
109.23	0.06442703
109.235	0.06327382
109.24	0.06213166
109.245	0.06101383
109.25	0.06075087
109.255	0.06048853
109.26	0.0608829
109.265	0.06129054
109.27	0.06171726
109.275	0.0621589
109.28	0.06246792
109.285	0.0627463
109.29	0.06303416
109.295	0.06331322
109.3	0.06379063
109.305	0.06422743
109.31	0.06500421
109.315	0.06584274
109.32	0.06690944
109.325	0.06795811
109.33	0.06907107
109.335	0.07019258
109.34	0.07132974
109.345	0.07243606
109.35	0.07350636
109.355	0.07443874
109.36	0.07537796
109.365	0.07618184
109.37	0.0769746
109.375	0.07796665
109.38	0.07887781
109.385	0.0802797
109.39	0.08169219
109.395	0.08309512
109.4	0.08449792
109.405	0.0859007
109.41	0.08703891
109.415	0.08818426
109.42	0.0891008
109.425	0.0899359
109.43	0.09072992
109.435	0.09151205
109.44	0.09226229
109.445	0.09295947
109.45	0.09367008
109.455	0.09437499
109.46	0.09508184
109.465	0.09579076
109.47	0.09666929
109.475	0.09758382
109.48	0.09851039
109.485	0.0994678
109.49	0.100458
109.495	0.1014713
109.5	0.1025007
109.505	0.1032264
109.51	0.1039566
109.515	0.1042701
109.52	0.1045761
109.525	0.1050015
109.53	0.1057259
109.535	0.1065505
109.54	0.107479
109.545	0.108379
109.55	0.1093182
109.555	0.1102546
109.56	0.1113059
109.565	0.1123325
109.57	0.1134088
109.575	0.1144757
109.58	0.1151241
109.585	0.1157965
109.59	0.1157852
109.595	0.1157267
109.6	0.1156891
109.605	0.1156351
109.61	0.1156392
109.615	0.1157385
109.62	0.1160412
109.625	0.1164264
109.63	0.1168399
109.635	0.1172701
109.64	0.1176953
109.645	0.1181301
109.65	0.118587
109.655	0.1189684
109.66	0.1194275
109.665	0.1198844
109.67	0.120369
109.675	0.1205692
109.68	0.1208158
109.685	0.1210766
109.69	0.1213665
109.695	0.121668
109.7	0.1219667
109.705	0.1222245
109.71	0.1226147
109.715	0.1230011
109.72	0.1236332
109.725	0.124326
109.73	0.1247358
109.735	0.1246446
109.74	0.1243724
109.745	0.1239105
109.75	0.123475
109.755	0.1229652
109.76	0.122457
109.765	0.1222176
109.77	0.1219901
109.775	0.12203
109.78	0.1222342
109.785	0.122676
109.79	0.1231084
109.795	0.1238995
109.8	0.1247437
109.805	0.1255877
109.81	0.1264115
109.815	0.1271519
109.82	0.1278705
109.825	0.1282182
109.83	0.1285771
109.835	0.1290144
109.84	0.1294782
109.845	0.1299216
109.85	0.130382
109.855	0.1310024
109.86	0.1316806
109.865	0.1322022
109.87	0.1327102
109.875	0.1331466
109.88	0.1337112
109.885	0.1341514
109.89	0.1345274
109.895	0.1348516
109.9	0.1350881
109.905	0.1352574
109.91	0.1354501
109.915	0.1357294
109.92	0.1361475
109.925	0.1364336
109.93	0.1366408
109.935	0.1369815
109.94	0.1375558
109.945	0.1382571
109.95	0.1390763
109.955	0.1398488
109.96	0.1406505
109.965	0.1414344
109.97	0.141586
109.975	0.141765
109.98	0.1414308
109.985	0.1408372
109.99	0.140308
109.995	0.1397803
110	0.1391989
110.005	0.1385592
110.01	0.1378667
110.015	0.1371816
110.02	0.1367664
110.025	0.1364445
110.03	0.1363642
110.035	0.1362854
110.04	0.1360522
110.045	0.1357975
110.05	0.1356024
110.055	0.1353785
110.06	0.1348293
110.065	0.1342723
110.07	0.1338401
110.075	0.1334193
110.08	0.1330397
110.085	0.1326717
110.09	0.1322939
110.095	0.1321366
110.1	0.1320262
110.105	0.1320672
110.11	0.132243
110.115	0.1324146
110.12	0.1324165
110.125	0.1321339
110.13	0.1319202
110.135	0.1316882
110.14	0.1314493
110.145	0.1311937
110.15	0.1308607
110.155	0.1304534
110.16	0.1300591
110.165	0.1296572
110.17	0.1292614
110.175	0.1292549
110.18	0.1291964
110.185	0.1294346
110.19	0.1297729
110.195	0.1299064
110.2	0.1300932
110.205	0.1303214
110.21	0.130587
110.215	0.1309414
110.22	0.1313009
110.225	0.1311989
110.23	0.1309086
110.235	0.1304754
110.24	0.1300075
110.245	0.129622
110.25	0.1291652
110.255	0.1285843
110.26	0.1281175
110.265	0.1278213
110.27	0.1274751
110.275	0.1270262
110.28	0.1265612
110.285	0.1260907
110.29	0.1256332
110.295	0.1252272
110.3	0.1244303
110.305	0.1235762
110.31	0.1225304
110.315	0.1212941
110.32	0.1201162
110.325	0.1190007
110.33	0.1180568
110.335	0.1171041
110.34	0.1162167
110.345	0.1153432
110.35	0.1144658
110.355	0.1135909
110.36	0.1127439
110.365	0.1119357
110.37	0.1111594
110.375	0.1104228
110.38	0.1096729
110.385	0.1089657
110.39	0.1082725
110.395	0.107782
110.4	0.1074711
110.405	0.1070857
110.41	0.1066224
110.415	0.1061108
110.42	0.1054409
110.425	0.1047553
110.43	0.1042074
110.435	0.1037812
110.44	0.1035388
110.445	0.1033435
110.45	0.1031481
110.455	0.1030011
110.46	0.1029349
110.465	0.102632
110.47	0.1023589
110.475	0.1021414
110.48	0.1020119
110.485	0.1019339
110.49	0.101899
110.495	0.1018098
110.5	0.1018438
110.505	0.1021863
110.51	0.1025947
110.515	0.103081
110.52	0.1037029
110.525	0.1041592
110.53	0.1046693
110.535	0.1051443
110.54	0.1056184
110.545	0.1060343
110.55	0.1064301
110.555	0.1068654
110.56	0.1073349
110.565	0.1077991
110.57	0.1082111
110.575	0.108564
110.58	0.1088376
110.585	0.1090259
110.59	0.1091353
110.595	0.1094847
110.6	0.109504
110.605	0.1094609
110.61	0.1094076
110.615	0.109401
110.62	0.1094166
110.625	0.1094934
110.63	0.1095772
110.635	0.1097671
110.64	0.1099864
110.645	0.1100507
110.65	0.1100723
110.655	0.110107
110.66	0.1101624
110.665	0.1102424
110.67	0.1104031
110.675	0.1105089
110.68	0.1106012
110.685	0.1106626
110.69	0.1106477
110.695	0.110569
110.7	0.1105379
110.705	0.1103003
110.71	0.1098939
110.715	0.1094652
110.72	0.1090479
110.725	0.1085457
110.73	0.1081974
110.735	0.1078675
110.74	0.1075516
110.745	0.1074887
110.75	0.107598
110.755	0.1077715
110.76	0.1079807
110.765	0.1081611
110.77	0.1083535
110.775	0.1086456
110.78	0.1089756
110.785	0.1093323
110.79	0.1097529
110.795	0.1101782
110.8	0.1100835
110.805	0.1101297
110.81	0.1101486
110.815	0.1101547
110.82	0.1102282
110.825	0.1102977
110.83	0.1105022
110.835	0.1107052
110.84	0.1109028
110.845	0.1110392
110.85	0.1113276
110.855	0.1116424
110.86	0.111922
110.865	0.1121978
110.87	0.1124692
110.875	0.1127706
110.88	0.1131515
110.885	0.1135161
110.89	0.1138678
110.895	0.1142606
110.9	0.1146612
110.905	0.1149827
110.91	0.1153962
110.915	0.1159058
110.92	0.1163629
110.925	0.1168783
110.93	0.1174675
110.935	0.1179048
110.94	0.118477
110.945	0.1190198
110.95	0.1194235
110.955	0.1196356
110.96	0.119738
110.965	0.1196845
110.97	0.1196421
110.975	0.1195928
110.98	0.1193571
110.985	0.1191429
110.99	0.1190553
110.995	0.1189681
111	0.1189219
111.005	0.1190948
111.01	0.1192907
111.015	0.119506
111.02	0.1197447
111.025	0.1198616
111.03	0.1199858
111.035	0.1198938
111.04	0.119805
111.045	0.1197195
111.05	0.1196641
111.055	0.1194136
111.06	0.1191573
111.065	0.118972
111.07	0.1188745
111.075	0.1187384
111.08	0.1186795
111.085	0.1185652
111.09	0.1184669
111.095	0.118392
111.1	0.1183222
111.105	0.1182931
111.11	0.1183018
111.115	0.1183292
111.12	0.1183486
111.125	0.1184696
111.13	0.1184787
111.135	0.1184458
111.14	0.1185378
111.145	0.1182063
111.15	0.1178945
111.155	0.1171503
111.16	0.116411
111.165	0.1157428
111.17	0.1151736
111.175	0.1147179
111.18	0.1142712
111.185	0.1139374
111.19	0.1135375
111.195	0.1128786
111.2	0.1122345
111.205	0.1116624
111.21	0.1110924
111.215	0.1105208
111.22	0.1099613
111.225	0.1094502
111.23	0.1090224
111.235	0.1085945
111.24	0.108306
111.245	0.1082624
111.25	0.1083557
111.255	0.1084526
111.26	0.1087018
111.265	0.1089633
111.27	0.1091135
111.275	0.1091649
111.28	0.1092888
111.285	0.1093156
111.29	0.1093102
111.295	0.1093175
111.3	0.1094379
111.305	0.1096388
111.31	0.1097653
111.315	0.1098923
111.32	0.1099858
111.325	0.1100884
111.33	0.1100675
111.335	0.1101081
111.34	0.1101337
111.345	0.1100621
111.35	0.1102402
111.355	0.1104197
111.36	0.1110491
111.365	0.111699
111.37	0.1123134
111.375	0.112916
111.38	0.1132864
111.385	0.1137799
111.39	0.114274
111.395	0.114798
111.4	0.1154477
111.405	0.1160647
111.41	0.1165257
111.415	0.1169977
111.42	0.117438
111.425	0.1178809
111.43	0.118238
111.435	0.1185607
111.44	0.1189329
111.445	0.1193779
111.45	0.1193713
111.455	0.1191344
111.46	0.1189706
111.465	0.1187541
111.47	0.1185081
111.475	0.1183037
111.48	0.1180308
111.485	0.1176811
111.49	0.1172042
111.495	0.1167982
111.5	0.1163616
111.505	0.1157839
111.51	0.115016
111.515	0.1143114
111.52	0.1136144
111.525	0.1129747
111.53	0.1123216
111.535	0.1118687
111.54	0.1114565
111.545	0.1111163
111.55	0.1108331
111.555	0.1105255
111.56	0.1102422
111.565	0.1097693
111.57	0.1093554
111.575	0.1089571
111.58	0.10862
111.585	0.1083964
111.59	0.1078804
111.595	0.1073873
111.6	0.1068471
111.605	0.1063094
111.61	0.1057758
111.615	0.1053149
111.62	0.1049389
111.625	0.1046666
111.63	0.1043878
111.635	0.104195
111.64	0.1041375
111.645	0.1039854
111.65	0.1036864
111.655	0.1036503
111.66	0.1037184
111.665	0.1038373
111.67	0.1041013
111.675	0.1043841
111.68	0.1046718
111.685	0.105062
111.69	0.1054743
111.695	0.1060651
111.7	0.106655
111.705	0.1072608
111.71	0.1077941
111.715	0.1084294
111.72	0.1090243
111.725	0.1096174
111.73	0.1102182
111.735	0.1108408
111.74	0.1112457
111.745	0.1115664
111.75	0.1117985
111.755	0.1120104
111.76	0.1122295
111.765	0.112465
111.77	0.1128843
111.775	0.1132381
111.78	0.1137661
111.785	0.1141733
111.79	0.1146368
111.795	0.1152527
111.8	0.115802
111.805	0.1163794
111.81	0.116951
111.815	0.1175441
111.82	0.1181441
111.825	0.1185943
111.83	0.1189078
111.835	0.1192557
111.84	0.1195319
111.845	0.1196022
111.85	0.1196809
111.855	0.1197055
111.86	0.1197438
111.865	0.1197966
111.87	0.1195385
111.875	0.1191
111.88	0.1186922
111.885	0.1182882
111.89	0.1180014
111.895	0.1177287
111.9	0.1175616
111.905	0.1172703
111.91	0.1170157
111.915	0.1168669
111.92	0.116722
111.925	0.1166297
111.93	0.1165214
111.935	0.1163078
111.94	0.1161116
111.945	0.1158983
111.95	0.1157584
111.955	0.1156458
111.96	0.1156478
111.965	0.1156786
111.97	0.1156535
111.975	0.1155281
111.98	0.1154484
111.985	0.1150888
111.99	0.114789
111.995	0.1146436
112	0.1144748
112.005	0.1143609
112.01	0.1142699
112.015	0.1141725
112.02	0.1141427
112.025	0.1141783
112.03	0.1143071
112.035	0.1145532
112.04	0.1147394
112.045	0.1151184
112.05	0.1156069
112.055	0.1161244
112.06	0.1167279
112.065	0.1172852
112.07	0.1178467
112.075	0.1186135
112.08	0.1194564
112.085	0.1202754
112.09	0.1210808
112.095	0.1216838
112.1	0.1223094
112.105	0.1226079
112.11	0.1230468
112.115	0.1234087
112.12	0.123807
112.125	0.1242305
112.13	0.1246428
112.135	0.1251266
112.14	0.1256917
112.145	0.1262328
112.15	0.1268344
112.155	0.1274136
112.16	0.1280151
112.165	0.1283925
112.17	0.1287484
112.175	0.1290661
112.18	0.1293636
112.185	0.1296379
112.19	0.1300219
112.195	0.1304041
112.2	0.1304153
112.205	0.1304376
112.21	0.1304275
112.215	0.1304151
112.22	0.1304049
112.225	0.1302857
112.23	0.1300577
112.235	0.1298576
112.24	0.1296358
112.245	0.1294708
112.25	0.1290646
112.255	0.1287403
112.26	0.1284281
112.265	0.1281317
112.27	0.1278559
112.275	0.1275687
112.28	0.1272554
112.285	0.1269259
112.29	0.1265671
112.295	0.1262621
112.3	0.1259353
112.305	0.1255712
112.31	0.1254738
112.315	0.1253063
112.32	0.1252195
112.325	0.1250358
112.33	0.1248163
112.335	0.1244827
112.34	0.1240264
112.345	0.1234657
112.35	0.1228225
112.355	0.1221861
112.36	0.1214837
112.365	0.1207509
112.37	0.1201621
112.375	0.1195915
112.38	0.1191366
112.385	0.1186636
112.39	0.1181999
112.395	0.1176293
112.4	0.1170547
112.405	0.1166418
112.41	0.116846
112.415	0.1170912
112.42	0.1178347
112.425	0.1186031
112.43	0.1193359
112.435	0.1201234
112.44	0.120814
112.445	0.1214688
112.45	0.122062
112.455	0.1227285
112.46	0.1232412
112.465	0.123701
112.47	0.1243193
112.475	0.1249445
112.48	0.125573
112.485	0.1262043
112.49	0.1268429
112.495	0.1274877
112.5	0.1280304
112.505	0.1286318
112.51	0.1293279
112.515	0.1299118
112.52	0.1305311
112.525	0.1310809
112.53	0.1316636
112.535	0.1322707
112.54	0.1329411
112.545	0.1336623
112.55	0.1344288
112.555	0.1352538
112.56	0.1360844
112.565	0.1369841
112.57	0.1379129
112.575	0.1388142
112.58	0.1397355
112.585	0.1405431
112.59	0.141418
112.595	0.1422982
112.6	0.1432659
112.605	0.1442565
112.61	0.1452752
112.615	0.1453048
112.62	0.1453192
112.625	0.144478
112.63	0.1435992
112.635	0.142768
112.64	0.1419108
112.645	0.1410659
112.65	0.1401533
112.655	0.139256
112.66	0.1383844
112.665	0.1375296
112.67	0.136713
112.675	0.135566
112.68	0.1343943
112.685	0.1332227
112.69	0.132044
112.695	0.1308511
112.7	0.1296344
112.705	0.1284537
112.71	0.1272939
112.715	0.1259845
112.72	0.1246438
112.725	0.123232
112.73	0.1218128
112.735	0.1203867
112.74	0.1188763
112.745	0.117391
112.75	0.1160233
112.755	0.1146694
112.76	0.1133164
112.765	0.1119239
112.77	0.1104518
112.775	0.1088894
112.78	0.1072969
112.785	0.1055757
112.79	0.1039009
112.795	0.1021073
112.8	0.1002518
112.805	0.09829061
112.81	0.09624829
112.815	0.09422122
112.82	0.09290274
112.825	0.09152266
112.83	0.09096527
112.835	0.09045589
112.84	0.09002485
112.845	0.089674
112.85	0.08937636
112.855	0.08920289
112.86	0.08900673
112.865	0.08879584
112.87	0.08863456
112.875	0.08855663
112.88	0.08886339
112.885	0.08946219
112.89	0.0901149
112.895	0.09075707
112.9	0.0913993
112.905	0.09205881
112.91	0.0927221
112.915	0.09334896
112.92	0.09396122
112.925	0.09461735
112.93	0.09523331
112.935	0.09590486
112.94	0.09658822
112.945	0.09733934
112.95	0.09803006
112.955	0.0984166
112.96	0.09884852
112.965	0.09924157
112.97	0.09964521
112.975	0.100118
112.98	0.1006438
112.985	0.1012752
112.99	0.1019639
112.995	0.1026394
113	0.1033682
113.005	0.1041176
113.01	0.1049092
113.015	0.1056539
113.02	0.1062979
113.025	0.1069773
113.03	0.107673
113.035	0.1081717
113.04	0.1085921
113.045	0.108903
113.05	0.1091269
113.055	0.1093355
113.06	0.1095513
113.065	0.1097744
113.07	0.110087
113.075	0.1104121
113.08	0.11054
113.085	0.1104401
113.09	0.1099259
113.095	0.1092716
113.1	0.1086158
113.105	0.1081122
113.11	0.10761
113.115	0.1071572
113.12	0.1067577
113.125	0.1064179
113.13	0.106095
113.135	0.1058283
113.14	0.1054961
113.145	0.1051133
113.15	0.1047074
113.155	0.1043177
113.16	0.104044
113.165	0.1036247
113.17	0.1032937
113.175	0.1029579
113.18	0.1025228
113.185	0.1020714
113.19	0.1014279
113.195	0.1007898
113.2	0.1001619
113.205	0.09950328
113.21	0.09882599
113.215	0.09812138
113.22	0.09746829
113.225	0.09685276
113.23	0.09636034
113.235	0.09587827
113.24	0.0957255
113.245	0.09563041
113.25	0.0956229
113.255	0.09565971
113.26	0.09568665
113.265	0.09576471
113.27	0.09588582
113.275	0.09597892
113.28	0.09606247
113.285	0.09660979
113.29	0.09729531
113.295	0.09821451
113.3	0.09920622
113.305	0.1001941
113.31	0.1008686
113.315	0.101559
113.32	0.1021209
113.325	0.1026875
113.33	0.1032675
113.335	0.1038183
113.34	0.104388
113.345	0.1049982
113.35	0.105653
113.355	0.1062989
113.36	0.1072197
113.365	0.1081671
113.37	0.1094167
113.375	0.1105473
113.38	0.1117162
113.385	0.1129863
113.39	0.1142316
113.395	0.1156614
113.4	0.1170591
113.405	0.1185076
113.41	0.1199532
113.415	0.1214464
113.42	0.1229282
113.425	0.1243715
113.43	0.1258034
113.435	0.126963
113.44	0.128108
113.445	0.1288393
113.45	0.1295763
113.455	0.1302383
113.46	0.1309883
113.465	0.131715
113.47	0.1324442
113.475	0.1331194
113.48	0.1336293
113.485	0.1341139
113.49	0.1341106
113.495	0.1341034
113.5	0.1340174
113.505	0.1339514
113.51	0.1338966
113.515	0.1339317
113.52	0.1339394
113.525	0.1339933
113.53	0.1339341
113.535	0.1340424
113.54	0.1341633
113.545	0.1346106
113.55	0.1350443
113.555	0.1355164
113.56	0.1360571
113.565	0.1361446
113.57	0.1361915
113.575	0.1358748
113.58	0.1355477
113.585	0.1351642
113.59	0.1347561
113.595	0.1343684
113.6	0.1337939
113.605	0.1334002
113.61	0.1328767
113.615	0.1324567
113.62	0.1319641
113.625	0.1314747
113.63	0.130999
113.635	0.1305332
113.64	0.130304
113.645	0.1300778
113.65	0.1300652
113.655	0.1300148
113.66	0.1300293
113.665	0.1298588
113.67	0.1297173
113.675	0.129371
113.68	0.1290534
113.685	0.128863
113.69	0.128693
113.695	0.1287865
113.7	0.1289253
113.705	0.129124
113.71	0.1293152
113.715	0.1294746
113.72	0.1296488
113.725	0.1298331
113.73	0.1300189
113.735	0.1302859
113.74	0.1302037
113.745	0.1301179
113.75	0.1293974
113.755	0.1286668
113.76	0.1278079
113.765	0.1268353
113.77	0.126141
113.775	0.1255232
113.78	0.125101
113.785	0.1247557
113.79	0.1244059
113.795	0.1239369
113.8	0.1234334
113.805	0.1230227
113.81	0.1223138
113.815	0.1216571
113.82	0.1207699
113.825	0.1200724
113.83	0.1193877
113.835	0.1192326
113.84	0.119049
113.845	0.1186348
113.85	0.1182327
113.855	0.1178478
113.86	0.1174893
113.865	0.1171212
113.87	0.1169277
113.875	0.1167368
113.88	0.1166799
113.885	0.1166735
113.89	0.1166449
113.895	0.1166116
113.9	0.1165743
113.905	0.1165474
113.91	0.1165213
113.915	0.116585
113.92	0.1166931
113.925	0.1168338
113.93	0.1170262
113.935	0.1172893
113.94	0.1175381
113.945	0.1180479
113.95	0.1185699
113.955	0.1193077
113.96	0.1200883
113.965	0.1210017
113.97	0.1219172
113.975	0.1227545
113.98	0.1235191
113.985	0.1242672
113.99	0.1249354
113.995	0.1256222
114	0.1264066
114.005	0.1272071
114.01	0.1280746
114.015	0.128974
114.02	0.1298792
114.025	0.1308664
114.03	0.1315912
114.035	0.1323573
114.04	0.1321867
114.045	0.1321663
114.05	0.1323163
114.055	0.1324484
114.06	0.1325623
114.065	0.132791
114.07	0.1330628
114.075	0.1332138
114.08	0.1333697
114.085	0.1335578
114.09	0.1336491
114.095	0.1337501
114.1	0.1338557
114.105	0.1340148
114.11	0.134158
114.115	0.1342968
114.12	0.1342714
114.125	0.1342089
114.13	0.134139
114.135	0.1340204
114.14	0.1338542
114.145	0.1336935
114.15	0.1333819
114.155	0.1331062
114.16	0.1329229
114.165	0.1327568
114.17	0.132507
114.175	0.132289
114.18	0.1321136
114.185	0.1319918
114.19	0.1318731
114.195	0.1321817
114.2	0.1324882
114.205	0.1328002
114.21	0.1331096
114.215	0.133317
114.22	0.1335664
114.225	0.1338839
114.23	0.1342117
114.235	0.1345787
114.24	0.1351016
114.245	0.136022
114.25	0.136992
114.255	0.1378335
114.26	0.1386641
114.265	0.1394918
114.27	0.1401164
114.275	0.1406807
114.28	0.1412999
114.285	0.1420482
114.29	0.1428054
114.295	0.1437288
114.3	0.1446643
114.305	0.1456151
114.31	0.1464639
114.315	0.1472152
114.32	0.1479794
114.325	0.1487775
114.33	0.1495843
114.335	0.1503494
114.34	0.151087
114.345	0.1517514
114.35	0.1526293
114.355	0.1535755
114.36	0.1546364
114.365	0.1557081
114.37	0.1566973
114.375	0.1576719
114.38	0.1587028
114.385	0.1597091
114.39	0.1606247
114.395	0.161539
114.4	0.1618984
114.405	0.1622579
114.41	0.1625828
114.415	0.162958
114.42	0.1634281
114.425	0.1639015
114.43	0.1643248
114.435	0.1648312
114.44	0.1653778
114.445	0.1655083
114.45	0.1657043
114.455	0.1660692
114.46	0.1664867
114.465	0.1671785
114.47	0.1678734
114.475	0.1686211
114.48	0.1693199
114.485	0.1700173
114.49	0.1704514
114.495	0.1708273
114.5	0.1709863
114.505	0.1711675
114.51	0.1713355
114.515	0.171537
114.52	0.1718044
114.525	0.1721467
114.53	0.1725752
114.535	0.1730557
114.54	0.1735515
114.545	0.1740693
114.55	0.1746601
114.555	0.1749046
114.56	0.1752762
114.565	0.1753444
114.57	0.1753531
114.575	0.1753844
114.58	0.175451
114.585	0.1754152
114.59	0.175379
114.595	0.1754079
114.6	0.1754385
114.605	0.175637
114.61	0.1758355
114.615	0.1760656
114.62	0.1761993
114.625	0.1762736
114.63	0.1763574
114.635	0.1764355
114.64	0.176466
114.645	0.1764385
114.65	0.1767012
114.655	0.1769631
114.66	0.1764104
114.665	0.17584
114.67	0.1747576
114.675	0.1736634
114.68	0.1725799
114.685	0.1715378
114.69	0.1705637
114.695	0.1697415
114.7	0.1690098
114.705	0.1684545
114.71	0.1678059
114.715	0.1671862
114.72	0.1666543
114.725	0.1661109
114.73	0.1654134
114.735	0.1645799
114.74	0.1636278
114.745	0.162661
114.75	0.1616837
114.755	0.1606383
114.76	0.1597207
114.765	0.1585114
114.77	0.1574538
114.775	0.1564307
114.78	0.1553741
114.785	0.154289
114.79	0.1532346
114.795	0.1522376
114.8	0.1511697
114.805	0.1501314
114.81	0.1492458
114.815	0.1483597
114.82	0.1476123
114.825	0.1469401
114.83	0.1461517
114.835	0.1453553
114.84	0.1444896
114.845	0.1434788
114.85	0.1425451
114.855	0.141501
114.86	0.1404313
114.865	0.1399489
114.87	0.1395707
114.875	0.1395205
114.88	0.1394764
114.885	0.139432
114.89	0.1394103
114.895	0.1391929
114.9	0.1389451
114.905	0.1385522
114.91	0.1380584
114.915	0.1376936
114.92	0.1371986
114.925	0.1367258
114.93	0.1361568
114.935	0.1357049
114.94	0.135416
114.945	0.1352319
114.95	0.1351247
114.955	0.135054
114.96	0.1350399
114.965	0.1350735
114.97	0.1353249
114.975	0.135732
114.98	0.1361377
114.985	0.1365837
114.99	0.1370933
114.995	0.1376113
115	0.1380422
115.005	0.1385801
115.01	0.1390554
115.015	0.13933
115.02	0.1395941
115.025	0.1394883
115.03	0.1394212
115.035	0.1394597
115.04	0.1395762
115.045	0.1397648
115.05	0.1400295
115.055	0.140547
115.06	0.1410787
115.065	0.1414987
115.07	0.1419658
115.075	0.1422664
115.08	0.1425579
115.085	0.1428464
115.09	0.1431759
115.095	0.1434434
115.1	0.1439231
115.105	0.1444157
115.11	0.1449825
115.115	0.1455338
115.12	0.1459587
115.125	0.1466521
115.13	0.1469834
115.135	0.1476111
115.14	0.1481345
115.145	0.1485096
115.15	0.1488464
115.155	0.1490813
115.16	0.1492647
115.165	0.1494972
115.17	0.1497203
115.175	0.149956
115.18	0.1499599
115.185	0.1499763
115.19	0.1500852
115.195	0.1500968
115.2	0.1501389
115.205	0.1501592
115.21	0.150063
115.215	0.1499416
115.22	0.149846
115.225	0.1497558
115.23	0.1498369
115.235	0.14991
115.24	0.1499917
115.245	0.1501891
115.25	0.1503599
115.255	0.1506614
115.26	0.1505119
115.265	0.1503588
115.27	0.1503264
115.275	0.1503827
115.28	0.1505093
115.285	0.1507337
115.29	0.1510052
115.295	0.151323
115.3	0.1516806
115.305	0.1518407
115.31	0.1519754
115.315	0.1521047
115.32	0.152236
115.325	0.152465
115.33	0.1523216
115.335	0.1524332
115.34	0.1521269
115.345	0.1518714
115.35	0.1516905
115.355	0.1514941
115.36	0.1513436
115.365	0.1512426
115.37	0.1510184
115.375	0.1507991
115.38	0.1504376
115.385	0.150172
115.39	0.1498877
115.395	0.1494132
115.4	0.1490095
115.405	0.1485564
115.41	0.1481452
115.415	0.1478488
115.42	0.147593
115.425	0.1473975
115.43	0.1472442
115.435	0.1471097
115.44	0.1468572
115.445	0.1466003
115.45	0.1458944
115.455	0.1452346
115.46	0.1443543
115.465	0.143727
115.47	0.1430263
115.475	0.1422376
115.48	0.14126
115.485	0.1402592
115.49	0.1390373
115.495	0.1376984
115.5	0.1361142
115.505	0.1344927
115.51	0.1329401
115.515	0.1314397
115.52	0.1299302
115.525	0.1284449
115.53	0.1269026
115.535	0.1255684
115.54	0.1241947
115.545	0.1230844
115.55	0.1219986
115.555	0.1211504
115.56	0.1203481
115.565	0.1196787
115.57	0.1189417
115.575	0.1185637
115.58	0.1181944
115.585	0.1181068
115.59	0.1180458
115.595	0.1179641
115.6	0.1179938
115.605	0.1180221
115.61	0.1180754
115.615	0.118151
115.62	0.1180817
115.625	0.1180376
115.63	0.1180961
115.635	0.1180475
115.64	0.1180658
115.645	0.1181126
115.65	0.1181729
115.655	0.1185491
115.66	0.1188633
115.665	0.1193119
115.67	0.1195579
115.675	0.1198948
115.68	0.1202882
115.685	0.12079
115.69	0.121321
115.695	0.1219666
115.7	0.1226655
115.705	0.1235279
115.71	0.1245474
115.715	0.1258666
115.72	0.1271806
115.725	0.1286663
115.73	0.1301158
115.735	0.131539
115.74	0.1329492
115.745	0.134295
115.75	0.1356191
115.755	0.1368854
115.76	0.1378282
115.765	0.1387209
115.77	0.139353
115.775	0.1400085
115.78	0.140172
115.785	0.1403755
115.79	0.1403158
115.795	0.1402512
115.8	0.1402072
115.805	0.1401758
115.81	0.1400732
115.815	0.1400025
115.82	0.1399165
115.825	0.1399307
115.83	0.1399841
115.835	0.1398284
115.84	0.1397244
115.845	0.1395139
115.85	0.1393392
115.855	0.1391666
115.86	0.138986
115.865	0.13889
115.87	0.1388752
115.875	0.1389889
115.88	0.1391187
115.885	0.1392358
115.89	0.1393522
115.895	0.1394575
115.9	0.1395663
115.905	0.139681
115.91	0.1397628
115.915	0.1395926
115.92	0.1388637
115.925	0.1379802
115.93	0.1367139
115.935	0.1355207
115.94	0.1342793
115.945	0.1330229
115.95	0.1317946
115.955	0.1305203
115.96	0.1292587
115.965	0.1279497
115.97	0.1266636
115.975	0.1255007
115.98	0.1243612
115.985	0.1235384
115.99	0.1226636
115.995	0.1218726
116	0.1210613
116.005	0.120247
116.01	0.119413
116.015	0.1186921
116.02	0.1179557
116.025	0.1171862
116.03	0.1163336
116.035	0.1153843
116.04	0.1146127
116.045	0.113859
116.05	0.1131166
116.055	0.1124214
116.06	0.1116834
116.065	0.1109519
116.07	0.1101158
116.075	0.109106
116.08	0.1082721
116.085	0.1074178
116.09	0.1065582
116.095	0.1058521
116.1	0.1051278
116.105	0.1044062
116.11	0.1037208
116.115	0.1030815
116.12	0.1026085
116.125	0.1025169
116.13	0.1025571
116.135	0.1028563
116.14	0.1030302
116.145	0.10333
116.15	0.10367
116.155	0.1040135
116.16	0.1043892
116.165	0.1047508
116.17	0.1052695
116.175	0.1057845
116.18	0.106292
116.185	0.1067521
116.19	0.1071414
116.195	0.1074532
116.2	0.1078283
116.205	0.108282
116.21	0.1087392
116.215	0.1092666
116.22	0.1096564
116.225	0.1099809
116.23	0.1103372
116.235	0.1107172
116.24	0.1110237
116.245	0.1112408
116.25	0.1113827
116.255	0.11155
116.26	0.1116572
116.265	0.1118637
116.27	0.1120833
116.275	0.11225
116.28	0.1124393
116.285	0.1122807
116.29	0.1121015
116.295	0.1119402
116.3	0.1114881
116.305	0.1110443
116.31	0.1105892
116.315	0.1100576
116.32	0.1094709
116.325	0.1089606
116.33	0.1084632
116.335	0.1081992
116.34	0.1079347
116.345	0.1077558
116.35	0.1074393
116.355	0.107046
116.36	0.1066488
116.365	0.106325
116.37	0.1059874
116.375	0.1058068
116.38	0.1056368
116.385	0.1054807
116.39	0.1053098
116.395	0.1051251
116.4	0.1049851
116.405	0.1048205
116.41	0.1045329
116.415	0.1043002
116.42	0.1039319
116.425	0.1036646
116.43	0.103399
116.435	0.1031527
116.44	0.1029101
116.445	0.1027933
116.45	0.1027169
116.455	0.1026831
116.46	0.102709
116.465	0.1028685
116.47	0.1029146
116.475	0.1030069
116.48	0.103204
116.485	0.1034201
116.49	0.1038653
116.495	0.1043051
116.5	0.1048386
116.505	0.105504
116.51	0.1062525
116.515	0.107007
116.52	0.1077772
116.525	0.1085663
116.53	0.1092778
116.535	0.1099755
116.54	0.1103663
116.545	0.1107609
116.55	0.1110175
116.555	0.1113403
116.56	0.1117007
116.565	0.1120721
116.57	0.112264
116.575	0.1124798
116.58	0.1124099
116.585	0.1122724
116.59	0.1121474
116.595	0.1120486
116.6	0.1119655
116.605	0.1120215
116.61	0.1120912
116.615	0.1122475
116.62	0.112326
116.625	0.1124625
116.63	0.1125434
116.635	0.1127885
116.64	0.1131568
116.645	0.1136755
116.65	0.114248
116.655	0.1148224
116.66	0.1153989
116.665	0.1159628
116.67	0.1164413
116.675	0.116955
116.68	0.1173916
116.685	0.1177821
116.69	0.11824
116.695	0.1186134
116.7	0.1190741
116.705	0.1193997
116.71	0.1197268
116.715	0.1199576
116.72	0.1202743
116.725	0.1206039
116.73	0.1209738
116.735	0.1212267
116.74	0.1214885
116.745	0.1216712
116.75	0.1218463
116.755	0.1220427
116.76	0.1222463
116.765	0.1225259
116.77	0.1227868
116.775	0.1231449
116.78	0.1234983
116.785	0.124024
116.79	0.124595
116.795	0.1251422
116.8	0.1256747
116.805	0.1262356
116.81	0.1265851
116.815	0.1269356
116.82	0.12721
116.825	0.1274837
116.83	0.1277617
116.835	0.128062
116.84	0.1281433
116.845	0.1279381
116.85	0.1274774
116.855	0.1268408
116.86	0.1262033
116.865	0.125601
116.87	0.1249406
116.875	0.1242474
116.88	0.1235005
116.885	0.1227254
116.89	0.1219653
116.895	0.1211055
116.9	0.1202438
116.905	0.1192291
116.91	0.1182492
116.915	0.117312
116.92	0.1163398
116.925	0.1151622
116.93	0.1140042
116.935	0.112795
116.94	0.1117424
116.945	0.110681
116.95	0.1097861
116.955	0.1088872
116.96	0.108036
116.965	0.1071616
116.97	0.1061059
116.975	0.1050754
116.98	0.1040353
116.985	0.1031143
116.99	0.1020688
116.995	0.1010359
117	0.1001229
117.005	0.09919018
117.01	0.09828219
117.015	0.09750793
117.02	0.09671209
117.025	0.09597476
117.03	0.09522268
117.035	0.09446297
117.04	0.09370322
117.045	0.09313526
117.05	0.0927771
117.055	0.09275077
117.06	0.0928659
117.065	0.09300596
117.07	0.09305996
117.075	0.09308465
117.08	0.09301162
117.085	0.09298322
117.09	0.09305201
117.095	0.09312556
117.1	0.09332209
117.105	0.09357953
117.11	0.09395259
117.115	0.09425036
117.12	0.09445049
117.125	0.09478869
117.13	0.09534377
117.135	0.09581247
117.14	0.09623158
117.145	0.09652297
117.15	0.09679089
117.155	0.09702825
117.16	0.09730765
117.165	0.09764414
117.17	0.09798956
117.175	0.09841008
117.18	0.09882119
117.185	0.09927405
117.19	0.09946271
117.195	0.09975149
117.2	0.1000207
117.205	0.1002219
117.21	0.1005081
117.215	0.1006718
117.22	0.100913
117.225	0.101162
117.23	0.101393
117.235	0.1016356
117.24	0.1020997
117.245	0.1025539
117.25	0.103164
117.255	0.1037865
117.26	0.104135
117.265	0.1046197
117.27	0.1050519
117.275	0.1055854
117.28	0.1062062
117.285	0.1069245
117.29	0.1077434
117.295	0.1084855
117.3	0.1092289
117.305	0.1098502
117.31	0.1104272
117.315	0.1109724
117.32	0.1116515
117.325	0.1123482
117.33	0.1130687
117.335	0.1136309
117.34	0.1143265
117.345	0.1151459
117.35	0.1160072
117.355	0.1169147
117.36	0.1178574
117.365	0.1187336
117.37	0.1195133
117.375	0.1204809
117.38	0.1214684
117.385	0.1225376
117.39	0.1235145
117.395	0.1245857
117.4	0.1256583
117.405	0.1266927
117.41	0.127588
117.415	0.1283775
117.42	0.1292174
117.425	0.1299747
117.43	0.1307755
117.435	0.1316071
117.44	0.1324779
117.445	0.1329997
117.45	0.1335463
117.455	0.1337383
117.46	0.1339146
117.465	0.1341722
117.47	0.1342146
117.475	0.1342902
117.48	0.1342492
117.485	0.1341665
117.49	0.1341085
117.495	0.1339031
117.5	0.1337401
117.505	0.1335592
117.51	0.1334584
117.515	0.1333854
117.52	0.1333195
117.525	0.1331375
117.53	0.1329775
117.535	0.1326138
117.54	0.1323375
117.545	0.1319071
117.55	0.1313682
117.555	0.1308296
117.56	0.1302274
117.565	0.1295862
117.57	0.1289516
117.575	0.1283478
117.58	0.1273814
117.585	0.1263759
117.59	0.1251333
117.595	0.1239432
117.6	0.1227918
117.605	0.1215436
117.61	0.1202788
117.615	0.1190612
117.62	0.1178729
117.625	0.1166554
117.63	0.1153884
117.635	0.1139967
117.64	0.1125242
117.645	0.1109603
117.65	0.1096089
117.655	0.1081792
117.66	0.1069526
117.665	0.1057126
117.67	0.1045528
117.675	0.1035004
117.68	0.1027197
117.685	0.1019809
117.69	0.101388
117.695	0.1008054
117.7	0.1003033
117.705	0.09976594
117.71	0.09924712
117.715	0.0986489
117.72	0.09808564
117.725	0.09760685
117.73	0.09719226
117.735	0.09676739
117.74	0.09650979
117.745	0.09617476
117.75	0.09594575
117.755	0.09568164
117.76	0.09543205
117.765	0.09519638
117.77	0.0949306
117.775	0.09470416
117.78	0.09448268
117.785	0.09449557
117.79	0.09455053
117.795	0.09477077
117.8	0.09494743
117.805	0.09513908
117.81	0.09540109
117.815	0.09571348
117.82	0.09614523
117.825	0.09658645
117.83	0.09714712
117.835	0.09774236
117.84	0.09845228
117.845	0.09920254
117.85	0.1000273
117.855	0.1011212
117.86	0.1022575
117.865	0.1035816
117.87	0.1048881
117.875	0.1060336
117.88	0.1071869
117.885	0.1077464
117.89	0.1083335
117.895	0.1086661
117.9	0.1088979
117.905	0.1091377
117.91	0.1094139
117.915	0.1096726
117.92	0.1099891
117.925	0.1102079
117.93	0.1102632
117.935	0.1103146
117.94	0.1103543
117.945	0.1103814
117.95	0.1104704
117.955	0.1104988
117.96	0.1106293
117.965	0.11074
117.97	0.1109752
117.975	0.1112368
117.98	0.1114661
117.985	0.1117027
117.99	0.1119422
117.995	0.1121585
118	0.1123633
118.005	0.1126014
118.01	0.1126796
118.015	0.1127045
118.02	0.1126897
118.025	0.1126332
118.03	0.1125797
118.035	0.1123376
118.04	0.1121712
118.045	0.1120167
118.05	0.1118394
118.055	0.1115834
118.06	0.1107545
118.065	0.109926
118.07	0.1087565
118.075	0.107642
118.08	0.1066153
118.085	0.1055691
118.09	0.1048709
118.095	0.1041839
118.1	0.1036141
118.105	0.103134
118.11	0.1026553
118.115	0.1022312
118.12	0.1018124
118.125	0.1015066
118.13	0.1012755
118.135	0.1011794
118.14	0.1011424
118.145	0.1011095
118.15	0.1010935
118.155	0.1011078
118.16	0.1011949
118.165	0.1012341
118.17	0.1012736
118.175	0.1010796
118.18	0.1008938
118.185	0.100893
118.19	0.100879
118.195	0.1009227
118.2	0.1009862
118.205	0.1010906
118.21	0.1013132
118.215	0.101612
118.22	0.1019941
118.225	0.1024316
118.23	0.1027564
118.235	0.1030944
118.24	0.1035429
118.245	0.1039033
118.25	0.1041224
118.255	0.1043614
118.26	0.1046443
118.265	0.1052414
118.27	0.105778
118.275	0.1064775
118.28	0.1070603
118.285	0.1076168
118.29	0.1081698
118.295	0.1086352
118.3	0.1091184
118.305	0.1096351
118.31	0.1100839
118.315	0.1105496
118.32	0.1108391
118.325	0.1112014
118.33	0.1112772
118.335	0.1113094
118.34	0.1112693
118.345	0.1111247
118.35	0.1110662
118.355	0.1110141
118.36	0.1108294
118.365	0.1106038
118.37	0.110547
118.375	0.1105062
118.38	0.1105787
118.385	0.1106585
118.39	0.1104622
118.395	0.1102839
118.4	0.1099936
118.405	0.1096799
118.41	0.1093865
118.415	0.1088105
118.42	0.1083326
118.425	0.1077758
118.43	0.107158
118.435	0.10667
118.44	0.1061415
118.445	0.1056471
118.45	0.1052041
118.455	0.1048635
118.46	0.104514
118.465	0.104197
118.47	0.1038764
118.475	0.1035958
118.48	0.1033278
118.485	0.1031698
118.49	0.1029914
118.495	0.1029177
118.5	0.1028677
118.505	0.1027586
118.51	0.1026254
118.515	0.1025348
118.52	0.1023946
118.525	0.1024219
118.53	0.1026299
118.535	0.103018
118.54	0.1038084
118.545	0.1047253
118.55	0.1058247
118.555	0.1068956
118.56	0.1079785
118.565	0.1091324
118.57	0.1103108
118.575	0.1111206
118.58	0.1119095
118.585	0.1126753
118.59	0.1134448
118.595	0.1143265
118.6	0.1152385
118.605	0.1161997
118.61	0.1172067
118.615	0.1180932
118.62	0.119111
118.625	0.120012
118.63	0.1209679
118.635	0.1219351
118.64	0.1228357
118.645	0.1237555
118.65	0.124589
118.655	0.1253387
118.66	0.1260095
118.665	0.1266843
118.67	0.1272997
118.675	0.1279111
118.68	0.1284902
118.685	0.1290414
118.69	0.1294852
118.695	0.1299663
118.7	0.1302928
118.705	0.130629
118.71	0.1310689
118.715	0.1314803
118.72	0.131908
118.725	0.1323643
118.73	0.1327294
118.735	0.1326423
118.74	0.1325426
118.745	0.1318571
118.75	0.1310138
118.755	0.1299582
118.76	0.1288428
118.765	0.1276604
118.77	0.1265668
118.775	0.1254607
118.78	0.1245216
118.785	0.1236114
118.79	0.1227041
118.795	0.121744
118.8	0.1207454
118.805	0.1196938
118.81	0.1186351
118.815	0.1175674
118.82	0.1165764
118.825	0.1155906
118.83	0.1146311
118.835	0.113672
118.84	0.1127155
118.845	0.111758
118.85	0.1107748
118.855	0.1098317
118.86	0.1089642
118.865	0.1081556
118.87	0.1073227
118.875	0.1065273
118.88	0.1057847
118.885	0.1050676
118.89	0.104407
118.895	0.1038557
118.9	0.1032556
118.905	0.1027369
118.91	0.1022396
118.915	0.1014739
118.92	0.1007432
118.925	0.09995303
118.93	0.09913235
118.935	0.09836345
118.94	0.0979312
118.945	0.09749148
118.95	0.09747184
118.955	0.09755592
118.96	0.09778916
118.965	0.09784016
118.97	0.09792041
118.975	0.09781224
118.98	0.09765587
118.985	0.09748969
118.99	0.09724405
118.995	0.09699385
119	0.09677793
119.005	0.09658112
119.01	0.09631382
119.015	0.0960428
119.02	0.09559855
119.025	0.09512302
119.03	0.09461932
119.035	0.09428453
119.04	0.09384182
119.045	0.09343409
119.05	0.09302753
119.055	0.09266352
119.06	0.0923148
119.065	0.09190302
119.07	0.09149189
119.075	0.09120757
119.08	0.09089062
119.085	0.09044437
119.09	0.09002724
119.095	0.08952388
119.1	0.08894539
119.105	0.08837754
119.11	0.08783191
119.115	0.0875891
119.12	0.0875091
119.125	0.08766635
119.13	0.08785514
119.135	0.08806252
119.14	0.08828717
119.145	0.08859955
119.15	0.0889209
119.155	0.08919084
119.16	0.08947306
119.165	0.08973484
119.17	0.09016714
119.175	0.09064717
119.18	0.09116612
119.185	0.09176075
119.19	0.09250567
119.195	0.09331929
119.2	0.09420059
119.205	0.09514126
119.21	0.09609104
119.215	0.09712474
119.22	0.09814891
119.225	0.09928655
119.23	0.1004525
119.235	0.1016278
119.24	0.1024737
119.245	0.1033958
119.25	0.1042845
119.255	0.1051746
119.26	0.1060535
119.265	0.1069181
119.27	0.1078051
119.275	0.1086656
119.28	0.1093245
119.285	0.1100008
119.29	0.1107221
119.295	0.1114615
119.3	0.1122179
119.305	0.1130044
119.31	0.113759
119.315	0.1145009
119.32	0.1147074
119.325	0.1149171
119.33	0.1147547
119.335	0.1145983
119.34	0.1144371
119.345	0.1142401
119.35	0.1139346
119.355	0.1136297
119.36	0.1133341
119.365	0.1130187
119.37	0.1126974
119.375	0.1123851
119.38	0.1120179
119.385	0.1116218
119.39	0.1111524
119.395	0.110566
119.4	0.1099417
119.405	0.1094976
119.41	0.1090546
119.415	0.1086071
119.42	0.1080991
119.425	0.1077213
119.43	0.107366
119.435	0.1070708
119.44	0.1067459
119.445	0.1066813
119.45	0.1066383
119.455	0.1065253
119.46	0.1064618
119.465	0.1063286
119.47	0.1061658
119.475	0.1060057
119.48	0.1059697
119.485	0.1060349
119.49	0.1061022
119.495	0.106177
119.5	0.1061134
119.505	0.1060535
119.51	0.1059405
119.515	0.1058564
119.52	0.1057566
119.525	0.1060535
119.53	0.106349
119.535	0.1069208
119.54	0.1074824
119.545	0.1080496
119.55	0.1086356
119.555	0.1092233
119.56	0.1098047
119.565	0.1103884
119.57	0.111021
119.575	0.1116575
119.58	0.1122994
119.585	0.1129543
119.59	0.1137256
119.595	0.1145684
119.6	0.1153013
119.605	0.1160118
119.61	0.1162019
119.615	0.1162226
119.62	0.1163722
119.625	0.1165632
119.63	0.1165896
119.635	0.1165505
119.64	0.1163102
119.645	0.1161016
119.65	0.1157069
119.655	0.1151933
119.66	0.1147489
119.665	0.1142348
119.67	0.1137536
119.675	0.1132931
119.68	0.1128277
119.685	0.1121445
119.69	0.1114671
119.695	0.1107866
119.7	0.1100934
119.705	0.1094676
119.71	0.1088897
119.715	0.1083459
119.72	0.1078238
119.725	0.1073061
119.73	0.106585
119.735	0.1059179
119.74	0.105076
119.745	0.1042233
119.75	0.1033394
119.755	0.1024491
119.76	0.1015917
119.765	0.1007435
119.77	0.09988882
119.775	0.09893209
119.78	0.09796787
119.785	0.09699837
119.79	0.09603034
119.795	0.09487046
119.8	0.09359539
119.805	0.09237025
119.81	0.0911846
119.815	0.09035756
119.82	0.08968532
119.825	0.08867308
119.83	0.08765638
119.835	0.08656415
119.84	0.0855093
119.845	0.08459281
119.85	0.0836115
119.855	0.08274572
119.86	0.08201471
119.865	0.08129323
119.87	0.08059713
119.875	0.0799442
119.88	0.07928063
119.885	0.07860962
119.89	0.07809123
119.895	0.07753994
119.9	0.07694008
119.905	0.07633794
119.91	0.07574992
119.915	0.07504054
119.92	0.07436458
119.925	0.07364973
119.93	0.07293556
119.935	0.07238742
119.94	0.07170313
119.945	0.07114328
119.95	0.07060141
119.955	0.07008878
119.96	0.06958291
119.965	0.06907101
119.97	0.06853593
119.975	0.06805849
119.98	0.06766241
119.985	0.06726597
119.99	0.0668531
119.995	0.0664559
120	0.0661976
120.005	0.06602267
120.01	0.065931
120.015	0.06580535
120.02	0.06566214
120.025	0.06558522
120.03	0.06573737
120.035	0.06587598
120.04	0.06616489
120.045	0.06653058
120.05	0.067005
120.055	0.06758131
120.06	0.06821867
120.065	0.06885271
120.07	0.06936582
120.075	0.06987352
120.08	0.07027983
120.085	0.07069196
120.09	0.07111579
120.095	0.07154591
120.1	0.07202818
120.105	0.07259239
120.11	0.07321226
120.115	0.07385544
120.12	0.0746099
120.125	0.07528713
120.13	0.07592113
120.135	0.07662547
120.14	0.07740509
120.145	0.07819416
120.15	0.07905291
120.155	0.07987864
120.16	0.08071586
120.165	0.08153076
120.17	0.08240229
120.175	0.08325731
120.18	0.08404068
120.185	0.08479492
120.19	0.08554081
120.195	0.08626116
120.2	0.0869363
120.205	0.08764357
120.21	0.08833088
120.215	0.08900919
120.22	0.08971248
120.225	0.09042231
120.23	0.09100025
120.235	0.09163748
120.24	0.09223547
120.245	0.09286681
120.25	0.09335147
120.255	0.09369149
120.26	0.09394727
120.265	0.09416357
120.27	0.0942679
120.275	0.09449504
120.28	0.09470175
120.285	0.09496346
120.29	0.09521629
120.295	0.09563007
120.3	0.09602871
120.305	0.09650415
120.31	0.09692184
120.315	0.09727738
120.32	0.09766799
120.325	0.09794429
120.33	0.09822819
120.335	0.09853802
120.34	0.09871864
120.345	0.09883403
120.35	0.09899834
120.355	0.09911754
120.36	0.09932971
120.365	0.09948244
120.37	0.09963659
120.375	0.09968421
120.38	0.09972793
120.385	0.0997612
120.39	0.09981626
120.395	0.09987968
120.4	0.09996599
120.405	0.1001473
120.41	0.1003539
120.415	0.1007945
120.42	0.1013036
120.425	0.1017349
120.43	0.1021531
120.435	0.1026113
120.44	0.102951
120.445	0.1033005
120.45	0.1036379
120.455	0.1040487
120.46	0.1045354
120.465	0.1050449
120.47	0.1055006
120.475	0.1061112
120.48	0.1065734
120.485	0.1072442
120.49	0.1078805
120.495	0.1085161
120.5	0.1089062
120.505	0.1093472
120.51	0.1096111
120.515	0.1098604
120.52	0.1101036
120.525	0.1102261
120.53	0.1103878
120.535	0.1105635
120.54	0.1107403
120.545	0.1110024
120.55	0.1111599
120.555	0.1113075
120.56	0.1113769
120.565	0.1112986
120.57	0.1112625
120.575	0.1112285
120.58	0.1112641
120.585	0.1113116
120.59	0.1114165
120.595	0.1114978
120.6	0.1115645
120.605	0.1116244
120.61	0.1115583
120.615	0.1113537
120.62	0.1107555
120.625	0.1100016
120.63	0.1092841
120.635	0.1086377
120.64	0.1079956
120.645	0.1074121
120.65	0.106842
120.655	0.1062141
120.66	0.105583
120.665	0.1049218
120.67	0.1042519
120.675	0.103627
120.68	0.1028472
120.685	0.1021351
120.69	0.1010109
120.695	0.09989132
120.7	0.09876145
120.705	0.09768625
120.71	0.09649088
120.715	0.09533377
120.72	0.09419185
120.725	0.09332669
120.73	0.09253459
120.735	0.09181455
120.74	0.09111447
120.745	0.09040612
120.75	0.08963287
120.755	0.08896857
120.76	0.08823979
120.765	0.08767553
120.77	0.08732016
120.775	0.08693875
120.78	0.08657196
120.785	0.08614593
120.79	0.08576829
120.795	0.08531973
120.8	0.08499067
120.805	0.08468388
120.81	0.08436416
120.815	0.08410911
120.82	0.08402589
120.825	0.08420653
120.83	0.08449919
120.835	0.08492083
120.84	0.08516307
120.845	0.08542119
120.85	0.08575621
120.855	0.08621067
120.86	0.08668728
120.865	0.08718459
120.87	0.08771356
120.875	0.08829979
120.88	0.08889579
120.885	0.08954793
120.89	0.09020375
120.895	0.09111845
120.9	0.09202278
120.905	0.09297591
120.91	0.09391838
120.915	0.09490586
120.92	0.09594411
120.925	0.09726674
120.93	0.09810891
120.935	0.09907977
120.94	0.09992663
120.945	0.1007103
120.95	0.1015535
120.955	0.1025009
120.96	0.1034388
120.965	0.1044847
120.97	0.1053886
120.975	0.1061387
120.98	0.1068986
120.985	0.1076227
120.99	0.1083735
120.995	0.1090424
121	0.1097364
121.005	0.1102656
121.01	0.110779
121.015	0.1112982
121.02	0.1118447
121.025	0.1122769
121.03	0.1127596
121.035	0.1132403
121.04	0.1135334
121.045	0.1139182
121.05	0.1143056
121.055	0.1146071
121.06	0.1147139
121.065	0.1148642
121.07	0.1149759
121.075	0.1151234
121.08	0.1152059
121.085	0.1153006
121.09	0.1153809
121.095	0.1154614
121.1	0.1155015
121.105	0.1155419
121.11	0.1154831
121.115	0.1154571
121.12	0.1154379
121.125	0.1154507
121.13	0.1149703
121.135	0.1146675
121.14	0.1141039
121.145	0.113602
121.15	0.1131429
121.155	0.1125663
121.16	0.1118319
121.165	0.1110959
121.17	0.1102121
121.175	0.1093639
121.18	0.1085517
121.185	0.1077169
121.19	0.1068941
121.195	0.1061429
121.2	0.1055474
121.205	0.1049182
121.21	0.1044172
121.215	0.10393
121.22	0.1034586
121.225	0.1032512
121.23	0.1031097
121.235	0.1028737
121.24	0.1026851
121.245	0.102614
121.25	0.1025123
121.255	0.1023859
121.26	0.1022548
121.265	0.1022518
121.27	0.1022293
121.275	0.1022602
121.28	0.102172
121.285	0.1021048
121.29	0.1020487
121.295	0.1020422
121.3	0.1021115
121.305	0.1021755
121.31	0.1022555
121.315	0.1023902
121.32	0.1025394
121.325	0.1026762
121.33	0.102715
121.335	0.103064
121.34	0.1033762
121.345	0.1038481
121.35	0.1042882
121.355	0.1046977
121.36	0.1051723
121.365	0.1057416
121.37	0.1063024
121.375	0.1069348
121.38	0.1075893
121.385	0.108196
121.39	0.1088711
121.395	0.1095403
121.4	0.1100395
121.405	0.1102797
121.41	0.1105151
121.415	0.1106557
121.42	0.110782
121.425	0.1108737
121.43	0.1104044
121.435	0.1099307
121.44	0.1093962
121.445	0.1087662
121.45	0.108103
121.455	0.1074162
121.46	0.1067374
121.465	0.1060851
121.47	0.1054827
121.475	0.1048094
121.48	0.1040859
121.485	0.1034182
121.49	0.1028393
121.495	0.102137
121.5	0.1013955
121.505	0.1005392
121.51	0.09973287
121.515	0.09888903
121.52	0.0980478
121.525	0.09717466
121.53	0.0963007
121.535	0.09549022
121.54	0.09461553
121.545	0.09377643
121.55	0.09291001
121.555	0.09208123
121.56	0.09131315
121.565	0.09053887
121.57	0.08980221
121.575	0.08906334
121.58	0.08829649
121.585	0.08748882
121.59	0.08673366
121.595	0.08583053
121.6	0.08492363
121.605	0.08411444
121.61	0.08361464
121.615	0.08313541
121.62	0.08280477
121.625	0.08245432
121.63	0.08212862
121.635	0.08221503
121.64	0.08230155
121.645	0.08247471
121.65	0.08276389
121.655	0.08306415
121.66	0.08343055
121.665	0.08382695
121.67	0.08418188
121.675	0.08440558
121.68	0.08481963
121.685	0.08525345
121.69	0.08580313
121.695	0.08616077
121.7	0.08661139
121.705	0.08706568
121.71	0.0875443
121.715	0.08797117
121.72	0.08841368
121.725	0.08890258
121.73	0.089382
121.735	0.0899092
121.74	0.09033928
121.745	0.09077376
121.75	0.09119914
121.755	0.09164659
121.76	0.0920445
121.765	0.09230977
121.77	0.09259369
121.775	0.09272629
121.78	0.09289404
121.785	0.09308853
121.79	0.09333337
121.795	0.0935788	#1 kiana LF 3 
121.8	0.09386829
121.805	0.09414568
121.81	0.094414
121.815	0.09452485
121.82	0.09467547
121.825	0.0946685
121.83	0.09467168
121.835	0.0946733
121.84	0.09467811
121.845	0.09469072
121.85	0.09471019
121.855	0.09465477
121.86	0.09468493
121.865	0.09467058
121.87	0.09459199
121.875	0.09454456
121.88	0.09448484
121.885	0.09420183
121.89	0.09400826
121.895	0.09369437
121.9	0.09350354
121.905	0.0933136
121.91	0.09311365
121.915	0.09299779
121.92	0.09286652
121.925	0.09275766
121.93	0.0925636
121.935	0.09239495
121.94	0.09212623
121.945	0.091953
121.95	0.09179189
121.955	0.09164592
121.96	0.09147356
121.965	0.09140102
121.97	0.09141668
121.975	0.09138977
121.98	0.09147497
121.985	0.09149585
121.99	0.09151766
121.995	0.09147287
122	0.09142066
122.005	0.09144074
122.01	0.09149474
122.015	0.09161665
122.02	0.09171512
122.025	0.09173519
122.03	0.0918404
122.035	0.09202029
122.04	0.09221039
122.045	0.09238817
122.05	0.09256075
122.055	0.09290541
122.06	0.09323301
122.065	0.09342079
122.07	0.09362544
122.075	0.09386126
122.08	0.09413243
122.085	0.0944403
122.09	0.09485739
122.095	0.09510462
122.1	0.09527384
122.105	0.09536692
122.11	0.09549739
122.115	0.09571336
122.12	0.09579954
122.125	0.09604856
122.13	0.09626554
122.135	0.09650215
122.14	0.09677517
122.145	0.09721088
122.15	0.0976283
122.155	0.09809582
122.16	0.0985326
122.165	0.09898551
122.17	0.09926966
122.175	0.09956015
122.18	0.09986034
122.185	0.1001403
122.19	0.1005339
122.195	0.1010106
122.2	0.101638
122.205	0.1022666
122.21	0.1027855
122.215	0.1032609
122.22	0.1036293
122.225	0.1040234
122.23	0.1044578
122.235	0.1049028
122.24	0.1052677
122.245	0.1056224
122.25	0.1059341
122.255	0.1063549
122.26	0.1064838
122.265	0.1067397
122.27	0.1070282
122.275	0.1072767
122.28	0.1075181
122.285	0.1076986
122.29	0.1078841
122.295	0.1080699
122.3	0.1082981
122.305	0.1086272
122.31	0.1090851
122.315	0.109475
122.32	0.109773
122.325	0.1100919
122.33	0.1101788
122.335	0.1103104
122.34	0.1104354
122.345	0.1104688
122.35	0.110299
122.355	0.110081
122.36	0.1097804
122.365	0.109497
122.37	0.1092104
122.375	0.1090347
122.38	0.108816
122.385	0.1086929
122.39	0.1085944
122.395	0.1084446
122.4	0.1080933
122.405	0.107518
122.41	0.1069832
122.415	0.106495
122.42	0.1060203
122.425	0.1056018
122.43	0.1052634
122.435	0.1049355
122.44	0.1045745
122.445	0.1041942
122.45	0.1038073
122.455	0.1034687
122.46	0.1029245
122.465	0.1027024
122.47	0.1024269
122.475	0.1021657
122.48	0.1021319
122.485	0.1021377
122.49	0.1021859
122.495	0.1022391
122.5	0.1022926
122.505	0.1023678
122.51	0.1023817
122.515	0.1021756
122.52	0.1020082
122.525	0.1018135
122.53	0.1016341
122.535	0.1015395
122.54	0.1013852
122.545	0.1012467
122.55	0.1011875
122.555	0.1012542
122.56	0.1013755
122.565	0.1015358
122.57	0.1016881
122.575	0.101834
122.58	0.1019382
122.585	0.1021018
122.59	0.1020666
122.595	0.1019544
122.6	0.1016801
122.605	0.101575
122.61	0.1015774
122.615	0.1015203
122.62	0.1014839
122.625	0.1014406
122.63	0.1013869
122.635	0.1012624
122.64	0.101172
122.645	0.1018054
122.65	0.1025054
122.655	0.1035813
122.66	0.1046032
122.665	0.1056813
122.67	0.1064241
122.675	0.1069881
122.68	0.1075882
122.685	0.1078179
122.69	0.1079969
122.695	0.1081511
122.7	0.1083266
122.705	0.1085063
122.71	0.1088
122.715	0.1091484
122.72	0.1097921
122.725	0.1104968
122.73	0.1112445
122.735	0.1120035
122.74	0.1128288
122.745	0.1137838
122.75	0.1147322
122.755	0.1156609
122.76	0.1166448
122.765	0.1176203
122.77	0.1185984
122.775	0.1196341
122.78	0.120827
122.785	0.1219985
122.79	0.123162
122.795	0.1244641
122.8	0.1261321
122.805	0.1279697
122.81	0.1298592
122.815	0.1317743
122.82	0.1337365
122.825	0.1358208
122.83	0.1379569
122.835	0.140139
122.84	0.1422639
122.845	0.1442725
122.85	0.1453524
122.855	0.1463884
122.86	0.1468872
122.865	0.1474147
122.87	0.1480063
122.875	0.148772
122.88	0.1497155
122.885	0.1507621
122.89	0.1520736
122.895	0.1533843
122.9	0.1546936
122.905	0.1560016
122.91	0.1573092
122.915	0.1584678
122.92	0.1598015
122.925	0.1608887
122.93	0.162261
122.935	0.1636248
122.94	0.1655655
122.945	0.1674261
122.95	0.169362
122.955	0.1718204
122.96	0.1742628
122.965	0.1774237
122.97	0.1805035
122.975	0.1835268
122.98	0.1864281
122.985	0.1891874
122.99	0.1921728
122.995	0.195238
123	0.1981914
123.005	0.2006761
123.01	0.2030185
123.015	0.2055407
123.02	0.2079708
123.025	0.2104885
123.03	0.2128036
123.035	0.2152165
123.04	0.2175465
123.045	0.2200616
123.05	0.222758
123.055	0.2257402
123.06	0.2286924
123.065	0.2319739
123.07	0.2352231
123.075	0.2384777
123.08	0.2416375
123.085	0.2448389
123.09	0.2478198
123.095	0.2506044
123.1	0.2533614
123.105	0.256108
123.11	0.2587988
123.115	0.2615271
123.12	0.2642563
123.125	0.2668322
123.13	0.2694717
123.135	0.2717693
123.14	0.2744029
123.145	0.2769543
123.15	0.2797274
123.155	0.2825802
123.16	0.2849371
123.165	0.287484
123.17	0.2891656
123.175	0.2911346
123.18	0.2931323
123.185	0.2952895
123.19	0.2974323
123.195	0.2992637
123.2	0.3009115
123.205	0.3025523
123.21	0.3043417
123.215	0.30616
123.22	0.3075318
123.225	0.3089768
123.23	0.3101652
123.235	0.3113771
123.24	0.3123144
123.245	0.3132551
123.25	0.3139522
123.255	0.3145422
123.26	0.3150396
123.265	0.315617
123.27	0.3161525
123.275	0.3172726
123.28	0.3182737
123.285	0.3195725
123.29	0.3206263
123.295	0.3223206
123.3	0.3240631
123.305	0.3260816
123.31	0.3280576
123.315	0.3302897
123.32	0.3323844
123.325	0.3347276
123.33	0.3369852
123.335	0.3391831
123.34	0.3413882
123.345	0.3431206
123.35	0.3440844
123.355	0.3448239
123.36	0.3451784
123.365	0.3454987
123.37	0.3456084
123.375	0.3458698
123.38	0.3456564
123.385	0.3454271
123.39	0.3449369
123.395	0.3444905
123.4	0.3441329
123.405	0.3439038
123.41	0.3436867
123.415	0.3434923
123.42	0.3433073
123.425	0.3433381
123.43	0.3432623
123.435	0.343356
123.44	0.3434651
123.445	0.3439191
123.45	0.344376
123.455	0.3449268
123.46	0.3453228
123.465	0.3458865
123.47	0.3471249
123.475	0.3482659
123.48	0.3487387
123.485	0.3493545
123.49	0.3494201
123.495	0.3497394
123.5	0.3490319
123.505	0.3483827
123.51	0.3471978
123.515	0.3461277
123.52	0.3445508
123.525	0.3433059
123.53	0.3415693
123.535	0.3399095
123.54	0.3382629
123.545	0.3366725
123.55	0.3351415
123.555	0.3341473
123.56	0.3331112
123.565	0.3322054
123.57	0.3314683
123.575	0.3305576
123.58	0.3299541
123.585	0.3295913
123.59	0.3292617
123.595	0.3290722
123.6	0.3288384
123.605	0.3286874
123.61	0.3284486
123.615	0.3282073
123.62	0.3278843
123.625	0.3276305
123.63	0.3273838
123.635	0.327237
123.64	0.3270128
123.645	0.3267844
123.65	0.3262687
123.655	0.3257136
123.66	0.3254446
123.665	0.3253158
123.67	0.3249254
123.675	0.3228464
123.68	0.3205039
123.685	0.3178001
123.69	0.314843
123.695	0.3121729
123.7	0.3091897
123.705	0.3067744
123.71	0.3041968
123.715	0.3022888
123.72	0.3002086
123.725	0.2989714
123.73	0.2971239
123.735	0.2956778
123.74	0.2941962
123.745	0.292825
123.75	0.2914386
123.755	0.2901716
123.76	0.2888876
123.765	0.2875981
123.77	0.2864362
123.775	0.2853467
123.78	0.2845368
123.785	0.2833592
123.79	0.2821759
123.795	0.2807824
123.8	0.2794797
123.805	0.2780104
123.81	0.2764399
123.815	0.2748084
123.82	0.2731718
123.825	0.2715589
123.83	0.26975
123.835	0.2679442
123.84	0.2660391
123.845	0.264157
123.85	0.2623175
123.855	0.260367
123.86	0.258445
123.865	0.2557679
123.87	0.2530687
123.875	0.2505028
123.88	0.2490724
123.885	0.2479789
123.89	0.2474878
123.895	0.2471592
123.9	0.2468424
123.905	0.246838
123.91	0.2467524
123.915	0.2467654
123.92	0.2458639
123.925	0.2449092
123.93	0.242588
123.935	0.2405526
123.94	0.2381407
123.945	0.2357335
123.95	0.2330194
123.955	0.2302903
123.96	0.2275316
123.965	0.2247698
123.97	0.2221161
123.975	0.2193109
123.98	0.2161826
123.985	0.2128578
123.99	0.2097126
123.995	0.2065275
124	0.2034868
124.005	0.2001093
124.01	0.1968889
124.015	0.1936015
124.02	0.1903622
124.025	0.1870585
124.03	0.1837311
124.035	0.1804548
124.04	0.1770714
124.045	0.1736435
124.05	0.1701566
124.055	0.1664342
124.06	0.16291
124.065	0.1593067
124.07	0.1562452
124.075	0.1531125
124.08	0.1499308
124.085	0.1466494
124.09	0.1432129
124.095	0.1396755
124.1	0.1360222
124.105	0.1322274
124.11	0.127797
124.115	0.1232846
124.12	0.1185948
124.125	0.1146393
124.13	0.1107884
124.135	0.1083036
124.14	0.1058628
124.145	0.1038002
124.15	0.1015876
124.155	0.09964436
124.16	0.09767205
124.165	0.09566134
124.17	0.09349878
124.175	0.09115267
124.18	0.08891961
124.185	0.08701856
124.19	0.08528131
124.195	0.08353368
124.2	0.08178175
124.205	0.08000184
124.21	0.07856412
124.215	0.07709235
124.22	0.07572007
124.225	0.07435198
124.23	0.07297182
124.235	0.07152455
124.24	0.0700442
124.245	0.06870338
124.25	0.0674477
124.255	0.06617963
124.26	0.06510839
124.265	0.06407656
124.27	0.06303089
124.275	0.06197968
124.28	0.06092557
124.285	0.05988975
124.29	0.05886754
124.295	0.05793508
124.3	0.05704777
124.305	0.05623146
124.31	0.05552389
124.315	0.05542933
124.32	0.05539261
124.325	0.05531481
124.33	0.05521773
124.335	0.05502223
124.34	0.05482417
124.345	0.05467181
124.35	0.0545264
124.355	0.05458196
124.36	0.05465509
124.365	0.05474219
124.37	0.0548239
124.375	0.05501724
124.38	0.05532362
124.385	0.05566283
124.39	0.05601444
124.395	0.0563427
124.4	0.05667196
124.405	0.05690468
124.41	0.05710856
124.415	0.05730818
124.42	0.05758715
124.425	0.05787982
124.43	0.05818087
124.435	0.05848387
124.44	0.05877515
124.445	0.05910983
124.45	0.05929162
124.455	0.05950163
124.46	0.05986829
124.465	0.06021719
124.47	0.0605099
124.475	0.06087751
124.48	0.06130069
124.485	0.06171707
124.49	0.06210511
124.495	0.06250417
124.5	0.06288537
124.505	0.06326702
124.51	0.06357974
124.515	0.06376659
124.52	0.06396597
124.525	0.06415949
124.53	0.06438195
124.535	0.06469245
124.54	0.06520707
124.545	0.06574592
124.55	0.06632628
124.555	0.06689189
124.56	0.06761759
124.565	0.06835616
124.57	0.06926248
124.575	0.07019153
124.58	0.07108912
124.585	0.07197598
124.59	0.07289275
124.595	0.07379791
124.6	0.07468172
124.605	0.07555568
124.61	0.07646161
124.615	0.07739186
124.62	0.07831751
124.625	0.07912699
124.63	0.07995686
124.635	0.08077237
124.64	0.08157291
124.645	0.08246417
124.65	0.08344588
124.655	0.08458526
124.66	0.08558555
124.665	0.08634551
124.67	0.08711382
124.675	0.08788073
124.68	0.08854701
124.685	0.08912788
124.69	0.089702
124.695	0.09025622
124.7	0.09079649
124.705	0.09134872
124.71	0.09195851
124.715	0.09258984
124.72	0.09326744
124.725	0.09394088
124.73	0.0946123
124.735	0.09540733
124.74	0.09624008
124.745	0.09686096
124.75	0.09750505
124.755	0.09800529
124.76	0.09849622
124.765	0.09868386
124.77	0.09885183
124.775	0.09874666
124.78	0.09859616
124.785	0.09845957
124.79	0.09848849
124.795	0.09844411
124.8	0.09866484
124.805	0.09894075
124.81	0.09938081
124.815	0.09997084
124.82	0.1006004
124.825	0.1012474
124.83	0.1019331
124.835	0.1025675
124.84	0.1032005
124.845	0.103894
124.85	0.1046402
124.855	0.1052409
124.86	0.1056164
124.865	0.1060781
124.87	0.1066253
124.875	0.1071892
124.88	0.1078166
124.885	0.108459
124.89	0.1091655
124.895	0.1101136
124.9	0.1111474
124.905	0.1124709
124.91	0.1137525
124.915	0.1150582
124.92	0.1163455
124.925	0.1177477
124.93	0.1191261
124.935	0.1205504
124.94	0.1217966
124.945	0.1229262
124.95	0.1240897
124.955	0.1252099
124.96	0.1263928
124.965	0.1275785
124.97	0.1289079
124.975	0.130226
124.98	0.131714
124.985	0.133204
124.99	0.1346721
124.995	0.1359281
125	0.1371755
125.005	0.1380978
125.01	0.1389701
125.015	0.1396164
125.02	0.1400378
125.025	0.1403681
125.03	0.1406585
125.035	0.1409459
125.04	0.1413426
125.045	0.1417532
